,ecg,time
66560,-89.74999620933244,259.99812264879813
66561,-84.47107000814097,260.0020288705927
66562,-82.95275749014664,260.00593509238735
66563,-97.55832215275295,260.0098413141819
66564,-128.38177666563467,260.01374753597656
66565,-161.17891186663806,260.01765375777114
66566,-177.52765396107014,260.0215599795657
66567,-169.39542743759102,260.02546620136036
66568,-145.53082523339745,260.02937242315494
66569,-123.53706006390274,260.0332786449496
66570,-113.91401409554155,260.03718486674416
66571,-109.7754640467229,260.04109108853874
66572,-91.55916604591167,260.0449973103334
66573,-43.44413177661334,260.04890353212795
66574,31.87321075302064,260.0528097539226
66575,112.4365886956323,260.05671597571717
66576,171.60196218517035,260.0606221975118
66577,197.00026751456568,260.0645284193064
66578,199.2835908499408,260.06843464110096
66579,203.61801522827244,260.0723408628956
66580,229.90842406053957,260.0762470846902
66581,276.45988366034595,260.0801533064848
66582,319.5545973746732,260.0840595282794
66583,329.54286092415725,260.087965750074
66584,291.23248830053706,260.0918719718686
66585,212.79515556987053,260.0957781936632
66586,116.70452239533172,260.09968441545783
66587,21.36896171210715,260.1035906372524
66588,-69.94953270476239,260.10749685904705
66589,-163.53995077613797,260.1114030808416
66590,-260.1477980323227,260.1153093026362
66591,-347.6408068474718,260.11921552443084
66592,-411.1068222931548,260.1231217462254
66593,-450.8782337417642,260.12702796802006
66594,-487.8127026007039,260.13093418981464
66595,-545.8778427415918,260.1348404116092
66596,-626.4079582075599,260.13874663340385
66597,-701.2470596702163,260.14265285519843
66598,-736.6754072763767,260.14655907699307
66599,-728.4815259743093,260.15046529878765
66600,-712.9263125225167,260.15437152058223
66601,-738.3667680153462,260.15827774237687
66602,-821.1920217718466,260.16218396417145
66603,-927.3365642629274,260.1660901859661
66604,-995.0842594826438,260.16999640776066
66605,-970.1399657583058,260.1739026295553
66606,-809.783204671479,260.1778088513499
66607,-451.7583097397124,260.18171507314446
66608,201.0341970117175,260.1856212949391
66609,1222.4411380712927,260.1895275167337
66610,2541.535729438319,260.1934337385283
66611,3855.616311454274,260.1973399603229
66612,4691.5116003037065,260.2012461821175
66613,4632.113285332649,260.2051524039121
66614,3580.780725298809,260.2090586257067
66615,1870.931928500099,260.2129648475013
66616,116.2201846695994,260.2168710692959
66617,-1117.0603750120295,260.22077729109054
66618,-1597.5642149571981,260.2246835128851
66619,-1487.7675512840156,260.2285897346797
66620,-1158.3942074251645,260.23249595647434
66621,-917.9218558351045,260.2364021782689
66622,-855.1078915115834,260.24030840006355
66623,-875.9468814430015,260.24421462185813
66624,-855.9919417859882,260.2481208436527
66625,-759.6627136006126,260.25202706544735
66626,-641.600994945206,260.25593328724193
66627,-564.7947545231345,260.25983950903657
66628,-533.5405991724369,260.26374573083115
66629,-501.8986736424457,260.2676519526257
66630,-433.1688092513009,260.27155817442036
66631,-340.5432246719294,260.27546439621494
66632,-269.43201525643303,260.2793706180096
66633,-246.60426420556445,260.28327683980416
66634,-252.07542962002657,260.2871830615988
66635,-240.82641925401254,260.2910892833934
66636,-188.79258077577197,260.29499550518796
66637,-115.75173111296382,260.2989017269826
66638,-64.63300575474184,260.3028079487772
66639,-60.61742507681956,260.3067141705718
66640,-89.89753811940538,260.3106203923664
66641,-114.80700776990382,260.31452661416097
66642,-106.61303334741291,260.3184328359556
66643,-64.76304009630127,260.3223390577502
66644,-9.689431466558347,260.3262452795448
66645,37.44299072608286,260.3301515013394
66646,66.87753930009188,260.33405772313404
66647,77.37020953335858,260.3379639449286
66648,68.58425921505548,260.3418701667232
66649,40.83360907650422,260.34577638851783
66650,1.5546131853075564,260.3496826103124
66651,-32.47740474495765,260.35358883210705
66652,-43.9650388294932,260.35749505390163
66653,-28.325251750900346,260.3614012756962
66654,2.0134878488522023,260.36530749749085
66655,27.595961717631795,260.3692137192854
66656,37.20519787232976,260.37311994108006
66657,34.162617617811534,260.37702616287464
66658,28.847158268023556,260.3809323846693
66659,26.59838247294001,260.38483860646386
66660,23.951257735670012,260.38874482825844
66661,16.102926710597586,260.3926510500531
66662,5.780488928913259,260.39655727184766
66663,2.1380306796702353,260.4004634936423
66664,9.744662416538489,260.40436971543687
66665,19.85081667871128,260.40827593723145
66666,15.478180734074984,260.4121821590261
66667,-11.866057573985959,260.41608838082067
66668,-49.26735876602267,260.4199946026153
66669,-67.41654513256682,260.4239008244099
66670,-41.96178216224709,260.42780704620446
66671,26.064177180407114,260.4317132679991
66672,108.5204564279633,260.4356194897937
66673,169.28876888548922,260.4395257115883
66674,188.75466661484012,260.4434319333829
66675,174.25800805123583,260.44733815517753
66676,149.84938344801816,260.4512443769721
66677,135.88021777205296,260.4551505987667
66678,135.51792245051868,260.45905682056133
66679,136.95241378828587,260.4629630423559
66680,126.07341182985547,260.46686926415055
66681,97.50520903381732,260.4707754859451
66682,56.425852304208206,260.4746817077397
66683,12.999809579924804,260.47858792953434
66684,-23.893126451045354,260.4824941513289
66685,-49.50843632838357,260.48640037312356
66686,-63.51467235437196,260.49030659491814
66687,-69.91692441566977,260.4942128167128
66688,-76.2999234553757,260.49811903850735
66689,-90.35826604390704,260.50202526030193
66690,-114.1366420923967,260.50593148209657
66691,-140.47114101460045,260.50983770389115
66692,-156.24358076879267,260.5137439256858
66693,-151.53505511177278,260.51765014748037
66694,-127.58232387200678,260.52155636927495
66695,-96.3896658305681,260.5254625910696
66696,-71.94648108704368,260.52936881286416
66697,-60.67452898038804,260.5332750346588
66698,-59.25342845645548,260.5371812564534
66699,-60.635654789717435,260.541087478248
66700,-61.25448017808894,260.5449937000426
66701,-62.12217137245028,260.5488999218372
66702,-63.85096770828838,260.5528061436318
66703,-62.612896755511024,260.5567123654264
66704,-52.977777083468034,260.56061858722103
66705,-35.3815429959586,260.5645248090156
66706,-19.58771921786565,260.5684310308102
66707,-18.405252919593565,260.5723372526048
66708,-35.8934223799879,260.5762434743994
66709,-61.14720492912849,260.58014969619404
66710,-74.80476388593343,260.5840559179886
66711,-63.76042353129364,260.5879621397832
66712,-31.490010399706904,260.59186836157784
66713,4.920322865380035,260.5957745833724
66714,27.883742540873744,260.59968080516705
66715,30.668235041459425,260.60358702696163
66716,17.98925181423307,260.60749324875627
66717,-2.1058132819361015,260.61139947055085
66718,-25.217151622172857,260.61530569234543
66719,-49.68044043826822,260.61921191414007
66720,-70.99178459187382,260.62311813593465
66721,-80.51005247969269,260.6270243577293
66722,-72.37716197071722,260.63093057952386
66723,-52.15139000062755,260.63483680131844
66724,-36.3826140092481,260.6387430231131
66725,-39.98583561833589,260.64264924490766
66726,-61.0699444956854,260.6465554667023
66727,-77.87546401514462,260.6504616884969
66728,-63.39559000272443,260.6543679102915
66729,-7.3781799894404125,260.6582741320861
66730,72.70656016959605,260.6621803538807
66731,142.24880710698284,260.6660865756753
66732,174.33592496881607,260.6699927974699
66733,169.1475192853057,260.6738990192645
66734,152.20207913235322,260.6778052410591
66735,153.0074569847599,260.6817114628537
66736,181.64310257667438,260.6856176846483
66737,222.0374065673986,260.6895239064429
66738,246.3056367367132,260.69343012823754
66739,236.86096334634675,260.6973363500321
66740,197.20558143938928,260.7012425718267
66741,143.23992779093646,260.70514879362133
66742,84.85265860818012,260.7090550154159
66743,16.280894054626653,260.71296123721055
66744,-75.04354213180274,260.71686745900513
66745,-189.99652072134174,260.72077368079977
66746,-309.13984784751426,260.72467990259435
66747,-404.9932489430629,260.7285861243889
66748,-465.34293680037104,260.73249234618356
66749,-504.7187698312462,260.73639856797814
66750,-550.5832844911919,260.7403047897728
66751,-615.5992076715312,260.74421101156736
66752,-683.3734830606381,260.74811723336194
66753,-724.1451473718627,260.7520234551566
66754,-727.1180610080191,260.75592967695115
66755,-716.9438072150091,260.7598358987458
66756,-735.0771372876601,260.76374212054037
66757,-801.7675861120572,260.767648342335
66758,-895.4388471772343,260.7715545641296
66759,-968.3162992850228,260.77546078592417
66760,-976.3220070729009,260.7793670077188
66761,-882.6669430585023,260.7832732295134
66762,-625.6830241478381,260.787179451308
66763,-96.02485275823807,260.7910856731026
66764,815.4292449013856,260.7949918948972
66765,2094.5879581778076,260.7988981166918
66766,3492.5462907573046,260.8028043384864
66767,4547.280892843341,260.80671056028103
66768,4784.250165313342,260.8106167820756
66769,3996.5049158162387,260.81452300387025
66770,2411.401913118972,260.81842922566483
66771,603.821936925407,260.8223354474594
66772,-808.711621674315,260.82624166925405
66773,-1490.1372873033679,260.8301478910486
66774,-1513.9268210400978,260.83405411284326
66775,-1227.5304732405468,260.83796033463784
66776,-978.0650973983979,260.8418665564324
66777,-907.5810681523441,260.84577277822706
66778,-943.3900252600022,260.84967900002164
66779,-942.364886517508,260.8535852218163
66780,-840.822299171294,260.85749144361085
66781,-690.9443934598876,260.86139766540543
66782,-584.2212711790762,260.86530388720007
66783,-556.8816122321875,260.86921010899465
66784,-566.3178597192402,260.8731163307893
66785,-545.1829049857461,260.87702255258387
66786,-468.07874449454744,260.8809287743785
66787,-366.8726602653022,260.8848349961731
66788,-290.207531263167,260.88874121796766
66789,-255.3933516833197,260.8926474397623
66790,-239.00648446289728,260.8965536615569
66791,-207.6172265271111,260.9004598833515
66792,-151.99227872211276,260.9043661051461
66793,-91.6950594434732,260.9082723269407
66794,-51.42240536662621,260.9121785487353
66795,-37.20474433028325,260.9160847705299
66796,-35.286485959681585,260.91999099232453
66797,-29.985930383992656,260.9238972141191
66798,-18.868195594672247,260.92780343591375
66799,-10.452487224109476,260.9317096577083
66800,-10.317245898788883,260.9356158795029
66801,-12.742857131262951,260.93952210129754
66802,-6.804991308726304,260.9434283230921
66803,10.751323954505793,260.94733454488676
66804,30.29606510370799,260.95124076668134
66805,37.28535743996138,260.9551469884759
66806,25.124873112166146,260.95905321027055
66807,0.36170705688207594,260.96295943206513
66808,-23.849548794469612,260.96686565385977
66809,-38.588685163132624,260.97077187565435
66810,-43.97765529683017,260.974678097449
66811,-44.93299556390781,260.97858431924357
66812,-43.93784877402152,260.98249054103815
66813,-38.7397865664975,260.9863967628328
66814,-26.661990505889797,260.99030298462736
66815,-10.066063672452474,260.994209206422
66816,3.430214623601654,260.9981154282166
66817,6.759983916403924,261.00202165001116
66818,-0.1765767940218722,261.0059278718058
66819,-9.701515087712465,261.0098340936004
66820,-12.288414673448651,261.013740315395
66821,-4.287185804376121,261.0176465371896
66822,9.161782055100044,261.02155275898417
66823,18.601284483120153,261.0254589807788
66824,18.524154611817224,261.0293652025734
66825,12.620352725492825,261.033271424368
66826,11.461957763007739,261.0371776461626
66827,24.039037166903405,261.04108386795724
66828,49.59870515639133,261.0449900897518
66829,76.4325629880417,261.0488963115464
66830,89.2469643441583,261.05280253334104
66831,80.11927566860473,261.0567087551356
66832,54.82809527915164,261.06061497693025
66833,29.302267241737027,261.06452119872483
66834,18.22406634731765,261.0684274205194
66835,24.0493258099713,261.07233364231405
66836,34.87964074395824,261.07623986410863
66837,33.18805363327586,261.08014608590327
66838,9.062134615725586,261.08405230769785
66839,-32.07437874231192,261.0879585294925
66840,-73.20345897131556,261.09186475128706
66841,-97.970715698694,261.09577097308164
66842,-101.86074429820886,261.0996771948763
66843,-93.70555419481846,261.10358341667086
66844,-86.87888139425283,261.1074896384655
66845,-87.89756601079877,261.1113958602601
66846,-92.00589855346058,261.11530208205465
66847,-89.12170734002136,261.1192083038493
66848,-74.549827948798,261.12311452564387
66849,-54.79987757212163,261.1270207474385
66850,-43.18043815796737,261.1309269692331
66851,-48.81829948473118,261.1348331910277
66852,-68.55641137875116,261.1387394128223
66853,-88.75985609269335,261.1426456346169
66854,-95.55040874900314,261.1465518564115
66855,-84.86161429456597,261.1504580782061
66856,-64.13631547724381,261.15436430000074
66857,-44.92074192016035,261.1582705217953
66858,-33.3388943777367,261.1621767435899
66859,-26.67739176363423,261.16608296538453
66860,-18.269104873292818,261.1699891871791
66861,-5.271595361024829,261.17389540897375
66862,8.283903949876963,261.17780163076833
66863,15.85074104396911,261.1817078525629
66864,15.535101266265903,261.18561407435755
66865,12.750564224911683,261.1895202961521
66866,15.388276480014724,261.19342651794676
66867,25.850748075917124,261.19733273974134
66868,37.66096033736283,261.201238961536
66869,40.44922709584617,261.20514518333056
66870,29.34129362680482,261.20905140512514
66871,10.239318815319269,261.2129576269198
66872,-4.400535721677084,261.21686384871435
66873,-6.351689169053474,261.220770070509
66874,0.25831205933346046,261.22467629230357
66875,1.1191655647820045,261.22858251409815
66876,-16.682812160691576,261.2324887358928
66877,-52.91952286921333,261.23639495768737
66878,-92.41542648981417,261.240301179482
66879,-115.50511084934476,261.2442074012766
66880,-112.89867840945135,261.2481136230712
66881,-93.04360297232849,261.2520198448658
66882,-75.7250799642759,261.2559260666604
66883,-76.53845306235985,261.259832288455
66884,-94.1640641418112,261.2637385102496
66885,-110.24179548386522,261.26764473204423
66886,-101.9643032523841,261.2715509538388
66887,-58.06099893148766,261.2754571756334
66888,13.23696356872756,261.279363397428
66889,89.39134308696389,261.2832696192226
66890,147.69280315778474,261.28717584101724
66891,178.48585472736028,261.2910820628118
66892,189.03747219288778,261.2949882846064
66893,196.29379151179057,261.29889450640104
66894,214.0070793141706,261.3028007281956
66895,243.05673701548307,261.30670694999026
66896,271.33017897104304,261.31061317178484
66897,282.73047914701306,261.3145193935795
66898,268.11615197982456,261.31842561537405
66899,229.39640538954978,261.32233183716863
66900,173.7062604999477,261.32623805896327
66901,103.69718048856024,261.33014428075785
66902,14.38570837833717,261.3340505025525
66903,-98.70006166121348,261.33795672434707
66904,-227.2904610605971,261.34186294614165
66905,-347.9053534199503,261.3457691679363
66906,-435.6844299280948,261.34967538973086
66907,-484.5459631995306,261.3535816115255
66908,-514.1346108476353,261.3574878333201
66909,-553.5878798143922,261.3613940551147
66910,-614.5470444229052,261.3653002769093
66911,-679.2684142384753,261.3692064987039
66912,-717.9436381414093,261.3731127204985
66913,-720.8001482808928,261.3770189422931
66914,-713.2989888702041,261.3809251640877
66915,-736.7861672822646,261.3848313858823
66916,-810.8649876063838,261.3887376076769
66917,-912.8115953458592,261.3926438294715
66918,-991.1775278682773,261.3965500512661
66919,-992.5423102250625,261.40045627306074
66920,-865.3533801755166,261.4043624948553
66921,-535.8920680143235,261.40826871664996
66922,100.08901436600524,261.41217493844454
66923,1118.8656464084438,261.4160811602391
66924,2451.7827053376977,261.41998738203375
66925,3800.103833477454,261.42389360382833
66926,4690.8411238667595,261.42779982562297
66927,4695.5041180978715,261.43170604741755
66928,3694.984519046037,261.43561226921213
66929,2002.2777430357896,261.43951849100677
66930,229.42266837874658,261.44342471280135
66931,-1035.7297725956653,261.447330934596
66932,-1532.6208806959414,261.45123715639056
66933,-1411.5157593339468,261.45514337818514
66934,-1060.1765790258291,261.4590495999798
66935,-820.2665918859486,261.46295582177436
66936,-800.6657539117471,261.466862043569
66937,-894.1884809195649,261.4707682653636
66938,-937.5382376342111,261.4746744871582
66939,-860.9853660852164,261.4785807089528
66940,-717.0960338381217,261.48248693074737
66941,-599.4524780999081,261.486393152542
66942,-548.9901360910322,261.4902993743366
66943,-532.0041450446151,261.4942055961312
66944,-491.6097502220175,261.4981118179258
66945,-408.6442948597801,261.5020180397204
66946,-313.45416923629017,261.505924261515
66947,-247.62789545924903,261.5098304833096
66948,-221.76509113912397,261.51373670510424
66949,-210.34895420130078,261.5176429268988
66950,-182.0408897654254,261.52154914869345
66951,-130.30241010964005,261.52545537048803
66952,-75.160072609471,261.5293615922826
66953,-39.648398554268226,261.53326781407725
66954,-28.04682363593607,261.53717403587183
66955,-26.372995143278402,261.54108025766647
66956,-20.279681197714375,261.54498647946104
66957,-9.271621159870818,261.5488927012556
66958,-3.431226538214494,261.55279892305026
66959,-8.764481288284152,261.55670514484484
66960,-18.204477581471476,261.5606113666395
66961,-17.607526320846624,261.56451758843406
66962,0.17211180577101426,261.5684238102287
66963,27.690717499360836,261.5723300320233
66964,48.91781016147603,261.57623625381785
66965,52.40776865900747,261.5801424756125
66966,39.293783363461074,261.58404869740707
66967,20.042791284817813,261.5879549192017
66968,4.799868190379367,261.5918611409963
66969,-3.1594275531817457,261.59576736279087
66970,-6.174128230320363,261.5996735845855
66971,-6.636363844254385,261.6035798063801
66972,-3.8654990016863264,261.6074860281747
66973,3.780975868299074,261.6113922499693
66974,14.851489506316314,261.6152984717639
66975,23.94622246623848,261.6192046935585
66976,25.470672477581232,261.6231109153531
66977,18.420721020666363,261.62701713714773
66978,7.538789837246467,261.6309233589423
66979,-0.20081518041656188,261.63482958073695
66980,-0.39655048914714586,261.6387358025315
66981,6.922297929374826,261.6426420243261
66982,19.373372781749428,261.64654824612074
66983,35.38977284260093,261.6504544679153
66984,55.032355105199024,261.65436068970996
66985,77.96139114215663,261.65826691150454
66986,101.32869074672001,261.6621731332991
66987,120.45496229720112,261.66607935509376
66988,132.04501336758636,261.66998557688834
66989,136.6767365606111,261.673891798683
66990,137.6664531950534,261.67779802047755
66991,137.01111704907024,261.6817042422722
66992,132.36856027392162,261.68561046406677
66993,118.4921975594795,261.68951668586135
66994,92.38119820567547,261.693422907656
66995,57.52814758884044,261.69732912945057
66996,22.9442317652472,261.7012353512452
66997,-2.842236798096761,261.7051415730398
66998,-17.94496534013959,261.70904779483436
66999,-28.139674820588667,261.712954016629
67000,-41.795776255791345,261.7168602384236
67001,-62.97272409935747,261.7207664602182
67002,-88.29083468605126,261.7246726820128
67003,-109.63874504504919,261.72857890380743
67004,-119.80895269248683,261.732485125602
67005,-116.32606172394398,261.7363913473966
67006,-101.3154218211531,261.7402975691912
67007,-79.20723373605597,261.7442037909858
67008,-55.31463398275746,261.74811001278044
67009,-35.96491673808042,261.752016234575
67010,-27.974968364932458,261.7559224563696
67011,-35.484560864414966,261.75982867816424
67012,-55.62315661920708,261.7637348999588
67013,-77.39977756567635,261.76764112175346
67014,-86.7626433522267,261.77154734354804
67015,-75.44910433780547,261.7754535653426
67016,-46.91125819325329,261.77935978713725
67017,-13.95579785332571,261.78326600893183
67018,10.628009165856582,261.78717223072647
67019,22.977167776383588,261.79107845252105
67020,29.247874896554,261.7949846743157
67021,38.29973921683754,261.79889089611027
67022,52.82217932654886,261.80279711790484
67023,67.01111509204921,261.8067033396995
67024,72.69587296615033,261.81060956149406
67025,67.85427167585686,261.8145157832887
67026,59.206878060795496,261.8184220050833
67027,56.22233137880215,261.82232822687786
67028,62.11847732829523,261.8262344486725
67029,70.4850450192944,261.8301406704671
67030,71.00922444526786,261.8340468922617
67031,59.21243084079455,261.8379531140563
67032,41.16324236195935,261.8418593358509
67033,28.592513734065825,261.8457655576455
67034,28.62142841501325,261.8496717794401
67035,37.30342692135244,261.8535780012347
67036,42.79852596784721,261.8574842230293
67037,35.403136319967075,261.86139044482394
67038,15.692406081899254,261.8652966666185
67039,-6.077344955549384,261.8692028884131
67040,-18.431990338960148,261.87310911020774
67041,-17.64191758021104,261.8770153320023
67042,-10.026270240061212,261.88092155379695
67043,-6.511577453473345,261.88482777559153
67044,-14.518418984919286,261.8887339973861
67045,-33.45000239443756,261.89264021918075
67046,-56.2294134709269,261.8965464409753
67047,-74.57687246542851,261.90045266276996
67048,-83.90975782849127,261.90435888456454
67049,-85.26808601819396,261.9082651063592
67050,-84.1017712423457,261.91217132815376
67051,-87.01641739209987,261.91607754994834
67052,-97.74370778955998,261.919983771743
67053,-113.84302607398352,261.92388999353756
67054,-126.07698952902726,261.9277962153322
67055,-121.82199182706063,261.9317024371268
67056,-91.57579707667855,261.93560865892135
67057,-34.970985622942166,261.939514880716
67058,37.806544735958745,261.94342110251057
67059,110.62575844453804,261.9473273243052
67060,169.42674212085456,261.9512335460998
67061,208.73519341760652,261.9551397678944
67062,232.89518289522096,261.959045989689
67063,251.70618048852168,261.9629522114836
67064,273.41311868246373,261.9668584332782
67065,299.2070953841916,261.9707646550728
67066,322.2620388772535,261.97467087686744
67067,331.6225651289832,261.978577098662
67068,318.2570320152127,261.9824833204566
67069,279.0616608078308,261.98638954225123
67070,216.1227324035885,261.9902957640458
67071,132.70360635932872,261.99420198584045
67072,30.84114340554841,261.998108207635
67073,-85.8957401556903,262.00201442942966
67074,-207.00313987047298,262.00592065122424
67075,-314.5028688294178,262.0098268730188
67076,-391.97016964427905,262.01373309481346
67077,-437.7168149991747,262.01763931660804
67078,-469.06117243560817,262.0215455384027
67079,-509.68278916004147,262.02545176019726
67080,-568.2291804056937,262.02935798199184
67081,-628.2899116016849,262.0332642037865
67082,-662.6819181905627,262.03717042558105
67083,-661.8204528129345,262.0410766473757
67084,-648.8972475592152,262.04498286917027
67085,-663.7982716925222,262.04888909096485
67086,-727.8332731576027,262.0527953127595
67087,-822.4202437358385,262.05670153455407
67088,-901.7500578195084,262.0606077563487
67089,-921.9668133554462,262.0645139781433
67090,-848.0315523721215,262.0684201999379
67091,-624.3423213816268,262.0723264217325
67092,-147.8958726866216,262.0762326435271
67093,694.5328971672527,262.0801388653217
67094,1911.2522123317497,262.0840450871163
67095,3287.729892359367,262.08795130891093
67096,4387.016812411459,262.0918575307055
67097,4728.3386569747,262.0957637525001
67098,4063.728593847234,262.0996699742947
67099,2566.9490102658365,262.1035761960893
67100,780.86065990682,262.10748241788394
67101,-666.8513757836155,262.1113886396785
67102,-1397.279466443681,262.11529486147316
67103,-1441.1155960625629,262.11920108326774
67104,-1133.7252281677106,262.1231073050623
67105,-846.0810350088934,262.12701352685696
67106,-757.549946077041,262.13091974865154
67107,-815.597572727184,262.1348259704462
67108,-865.7681106429463,262.13873219224075
67109,-812.9270494517975,262.14263841403533
67110,-682.9910435558709,262.14654463582997
67111,-564.4424239400138,262.15045085762455
67112,-511.9145468170388,262.1543570794192
67113,-505.46262893938683,262.15826330121376
67114,-487.76051609882114,262.1621695230084
67115,-426.63029430535346,262.166075744803
67116,-339.2821413896035,262.16998196659756
67117,-264.3357713654583,262.1738881883922
67118,-219.97926236290738,262.1777944101868
67119,-191.8673307791048,262.1817006319814
67120,-156.50648398807778,262.185606853776
67121,-109.44200346679801,262.1895130755706
67122,-68.03901196334934,262.1934192973652
67123,-49.49683997012371,262.1973255191598
67124,-50.39794556165633,262.2012317409544
67125,-49.46691715282647,262.205137962749
67126,-29.021859081017162,262.2090441845436
67127,8.027235321961761,262.2129504063382
67128,42.07759593049994,262.2168566281328
67129,55.811492156446235,262.22076284992744
67130,48.56935941275569,262.224669071722
67131,33.50545433962,262.22857529351666
67132,23.16673078275965,262.23248151531124
67133,19.180149733643034,262.2363877371058
67134,14.985992225747442,262.24029395890045
67135,6.1852968698242154,262.24420018069503
67136,-3.5735568772314017,262.24810640248967
67137,-6.720056918953424,262.25201262428425
67138,-0.24321378629594692,262.2559188460788
67139,11.005246787920305,262.25982506787346
67140,19.266766177381292,262.26373128966804
67141,21.252056857694757,262.2676375114627
67142,20.16224948440607,262.27154373325726
67143,20.88658171005722,262.2754499550519
67144,24.14439484363804,262.2793561768465
67145,25.94338140009456,262.28326239864106
67146,22.616923592661514,262.2871686204357
67147,15.705259175366766,262.2910748422303
67148,11.28048569012043,262.2949810640249
67149,14.314639180423272,262.2988872858195
67150,23.92191202602393,262.30279350761407
67151,34.42287062407564,262.3066997294087
67152,41.24605660860853,262.3106059512033
67153,45.80208900554821,262.3145121729979
67154,54.475046357680114,262.3184183947925
67155,72.62733537366523,262.3223246165871
67156,99.26548252815313,262.3262308383817
67157,127.23326665523658,262.3301370601763
67158,148.48452256700523,262.33404328197093
67159,159.4140297157572,262.3379495037655
67160,161.64186435011237,262.34185572556015
67161,158.29418249591583,262.34576194735473
67162,149.99096006892375,262.3496681691493
67163,134.54338933859432,262.35357439094395
67164,110.34249119630002,262.3574806127385
67165,79.72951077174156,262.36138683453316
67166,48.78036748008759,262.36529305632774
67167,23.503775183174234,262.3691992781223
67168,5.841752948579574,262.37310549991696
67169,-7.065418024851904,262.37701172171154
67170,-19.92600474024911,262.3809179435062
67171,-35.36985996517454,262.38482416530076
67172,-52.24187776760944,262.3887303870954
67173,-67.06662795504897,262.39263660889
67174,-76.96698907089677,262.39654283068455
67175,-81.5067938208363,262.4004490524792
67176,-82.28406648192359,262.40435527427377
67177,-81.10269168600747,262.4082614960684
67178,-78.48503863825658,262.412167717863
67179,-73.66857195470968,262.41607393965757
67180,-65.85217548167037,262.4199801614522
67181,-55.476632323036625,262.4238863832468
67182,-44.372281300341655,262.4277926050414
67183,-34.54500213702682,262.431698826836
67184,-26.515562214885026,262.43560504863063
67185,-18.647095383057447,262.4395112704252
67186,-8.292286204047524,262.4434174922198
67187,5.854667448079627,262.44732371401443
67188,22.02676829651198,262.451229935809
67189,35.92212326486754,262.45513615760365
67190,43.4618443204256,262.4590423793982
67191,43.787380386879704,262.4629486011928
67192,40.0986771415638,262.46685482298744
67193,37.58817069560719,262.470761044782
67194,40.09820833633822,262.47466726657666
67195,48.08621829200682,262.47857348837124
67196,59.15253486360526,262.4824797101658
67197,70.08518528540283,262.48638593196046
67198,78.34246726226316,262.49029215375504
67199,82.03510698466147,262.4941983755497
67200,79.42435751184249,262.49810459734425
67201,69.51612904986125,262.5020108191389
67202,53.81334795349034,262.50591704093347
67203,37.32457877540957,262.50982326272805
67204,26.82841366317522,262.5137294845227
67205,26.67879059041233,262.51763570631726
67206,35.10631038803878,262.5215419281119
67207,44.344321180571605,262.5254481499065
67208,45.24853908070168,262.52935437170106
67209,33.43750438371926,262.5332605934957
67210,12.444812654740577,262.5371668152903
67211,-8.636071389033702,262.5410730370849
67212,-21.477408839782356,262.5449792588795
67213,-24.271644504465,262.54888548067413
67214,-22.71549195167821,262.5527917024687
67215,-25.484452791200304,262.5566979242633
67216,-37.52653842896179,262.5606041460579
67217,-56.210291280503355,262.5645103678525
67218,-73.3625526589515,262.56841658964714
67219,-81.81653521064328,262.5723228114417
67220,-81.44393711092539,262.5762290332363
67221,-79.65784047751832,262.58013525503094
67222,-85.38027473491573,262.5840414768255
67223,-100.65673115893877,262.58794769862016
67224,-116.41671658903057,262.59185392041474
67225,-116.24361432690297,262.5957601422094
67226,-86.21446195921021,262.59966636400395
67227,-24.298237566308046,262.60357258579853
67228,57.064681792805246,262.60747880759317
67229,136.96237131689327,262.61138502938775
67230,196.78427576141448,262.6152912511824
67231,229.26840251131227,262.61919747297696
67232,240.82016139880628,262.62310369477154
67233,246.2529201179654,262.6270099165662
67234,259.25644067898133,262.63091613836076
67235,284.0178975211043,262.6348223601554
67236,312.62886769484913,262.63872858195
67237,329.5047732860998,262.64263480374456
67238,319.70778515518447,262.6465410255392
67239,275.65600367854654,262.6504472473338
67240,198.41638664495136,262.6543534691284
67241,94.61174752802135,262.658259690923
67242,-26.460959490762427,262.6621659127176
67243,-152.52321239677525,262.6660721345122
67244,-267.34753584619176,262.6699783563068
67245,-354.62863151959357,262.6738845781014
67246,-407.6598846581883,262.677790799896
67247,-437.1091738419402,262.68169702169064
67248,-466.4971713126629,262.6856032434852
67249,-514.4517661923637,262.6895094652798
67250,-577.4856242526077,262.69341568707443
67251,-631.1144010756873,262.697321908869
67252,-652.4218464613571,262.70122813066365
67253,-645.130352052744,262.70513435245823
67254,-641.7548140644155,262.70904057425287
67255,-677.0823649559482,262.71294679604745
67256,-756.2053962353505,262.716853017842
67257,-847.831793855043,262.72075923963666
67258,-907.522905162513,262.72466546143124
67259,-900.6102036727457,262.7285716832259
67260,-791.4835793905329,262.73247790502046
67261,-506.9337778946385,262.73638412681504
67262,71.79517044042188,262.7402903486097
67263,1037.8665756407086,262.74419657040426
67264,2329.1970419600925,262.7481027921989
67265,3642.6220164649044,262.7520090139935
67266,4501.249757935973,262.7559152357881
67267,4484.6170060454515,262.7598214575827
67268,3491.704660236117,262.76372767937727
67269,1847.8391472300912,262.7676339011719
67270,155.65743421747905,262.7715401229665
67271,-1028.0661893241008,262.7754463447611
67272,-1476.3325800601751,262.7793525665557
67273,-1351.4209064771103,262.7832587883503
67274,-1022.7666685957801,262.7871650101449
67275,-798.0255018296978,262.7910712319395
67276,-763.126653821889,262.79497745373413
67277,-816.1914980703555,262.7988836755287
67278,-821.63857964173,262.8027898973233
67279,-736.7176577648304,262.80669611911793
67280,-619.2747086272129,262.8106023409125
67281,-544.0331721684133,262.81450856270715
67282,-525.1034457545695,262.8184147845017
67283,-514.0700949951267,262.82232100629636
67284,-459.50289727917493,262.82622722809094
67285,-359.698407262245,262.8301334498855
67286,-259.282720073159,262.83403967168016
67287,-201.71212157588448,262.83794589347474
67288,-189.4437420906023,262.8418521152694
67289,-188.1421167373515,262.84575833706396
67290,-164.16476631610462,262.84966455885854
67291,-115.06720584566702,262.8535707806532
67292,-65.86873515817683,262.85747700244775
67293,-40.289676080726565,262.8613832242424
67294,-38.093450266565355,262.86528944603697
67295,-38.86048684701582,262.8691956678316
67296,-24.471356372157672,262.8731018896262
67297,3.682092759351999,262.87700811142076
67298,28.075769241181277,262.8809143332154
67299,33.00448028172039,262.88482055501
67300,18.820239057714428,262.8887267768046
67301,0.43570811094067574,262.8926329985992
67302,-6.229776951921192,262.8965392203938
67303,3.301156880476637,262.9004454421884
67304,20.36293418141463,262.904351663983
67305,31.327804449011524,262.90825788577763
67306,27.675560601496223,262.9121641075722
67307,10.828232089083365,262.9160703293668
67308,-9.8195269350928,262.9199765511614
67309,-22.779797865935656,262.923882772956
67310,-20.485592721359303,262.92778899475064
67311,-2.9363132434860484,262.9316952165452
67312,22.209385807278117,262.93560143833986
67313,43.242636148854686,262.93950766013444
67314,50.397322794812666,262.943413881929
67315,41.24182440166859,262.94732010372365
67316,22.13742584970896,262.95122632551823
67317,4.467873112861559,262.95513254731287
67318,-2.230199897035111,262.95903876910745
67319,4.1717927847833165,262.96294499090203
67320,17.790524112429782,262.96685121269667
67321,29.37174438353138,262.97075743449125
67322,32.91897806261542,262.9746636562859
67323,29.81021874987762,262.97856987808046
67324,27.728893503948925,262.9824760998751
67325,35.28311177143041,262.9863823216697
67326,56.03395005295478,262.99028854346426
67327,85.92270068691393,262.9941947652589
67328,115.64701835638098,262.9981009870535
67329,136.1017148365468,263.0020072088481
67330,143.0105332228237,263.0059134306427
67331,137.7623105760468,263.0098196524373
67332,124.51104659849018,263.0137258742319
67333,106.39127688350379,263.0176320960265
67334,84.02122750504923,263.0215383178211
67335,57.15161323358316,263.0254445396157
67336,27.431264086821123,263.02935076141034
67337,-0.6784222050771007,263.0332569832049
67338,-22.0329220223273,263.0371632049995
67339,-34.320273404716914,263.04106942679414
67340,-39.929384485866734,263.0449756485887
67341,-44.42357781537763,263.04888187038335
67342,-52.65979036133781,263.05278809217793
67343,-65.48818814923416,263.0566943139725
67344,-79.44751078722575,263.06060053576715
67345,-89.49458058827247,263.06450675756173
67346,-92.56570760003197,263.06841297935637
67347,-89.35778241846285,263.07231920115095
67348,-83.25810656963203,263.0762254229455
67349,-77.51126314618423,263.08013164474016
67350,-72.87479651022113,263.08403786653474
67351,-67.462953392066,263.0879440883294
67352,-58.748355682883975,263.09185031012396
67353,-46.07387526921726,263.0957565319186
67354,-31.65932013301337,263.0996627537132
67355,-19.227677783827765,263.10356897550776
67356,-11.223973487696561,263.1074751973024
67357,-6.797066188944405,263.111381419097
67358,-2.2785893846724115,263.1152876408916
67359,5.981650437133647,263.1191938626862
67360,18.507114790934768,263.12310008448077
67361,31.82364170699702,263.1270063062754
67362,40.74376159348918,263.13091252807
67363,42.22859781630585,263.1348187498646
67364,37.82923457286826,263.1387249716592
67365,32.625472762289235,263.14263119345384
67366,31.270985971562872,263.1465374152484
67367,34.16353106461628,263.150443637043
67368,36.90529116791558,263.15434985883763
67369,33.795906357327084,263.1582560806322
67370,22.84041099307631,263.16216230242685
67371,8.214874413169808,263.16606852422143
67372,-2.244695312590422,263.169974746016
67373,-3.1183745015092907,263.17388096781065
67374,3.5695199497109638,263.1777871896052
67375,8.78204428482103,263.18169341139986
67376,2.814378876081668,263.18559963319444
67377,-16.949268689158778,263.1895058549891
67378,-43.23020696757352,263.19341207678366
67379,-64.02208223075824,263.19731829857824
67380,-72.2822169314592,263.2012245203729
67381,-72.2807339874665,263.20513074216746
67382,-76.55632325643934,263.2090369639621
67383,-94.77585155167223,263.21294318575667
67384,-123.00542275695821,263.21684940755125
67385,-142.7131466368469,263.2207556293459
67386,-131.836516311379,263.22466185114047
67387,-80.60783023596616,263.2285680729351
67388,-0.32651919601521495,263.2324742947297
67389,82.11726669815326,263.23638051652426
67390,140.71833197673428,263.2402867383189
67391,166.33599290287634,263.2441929601135
67392,170.97964216965624,263.2480991819081
67393,177.74138985052855,263.2520054037027
67394,203.9641310403235,263.25591162549733
67395,249.59388210459514,263.2598178472919
67396,298.1827136114785,263.2637240690865
67397,328.3719940452216,263.26763029088113
67398,326.3257218061624,263.2715365126757
67399,290.07461259580845,263.27544273447035
67400,224.4592061851571,263.2793489562649
67401,133.71489937472242,263.2832551780595
67402,20.226423543075967,263.28716139985414
67403,-109.17835811687831,263.2910676216487
67404,-237.3642559156196,263.29497384344336
67405,-341.2176642638771,263.29888006523794
67406,-406.5919533982377,263.3027862870326
67407,-441.58365326653046,263.30669250882715
67408,-473.21370743215346,263.31059873062173
67409,-525.778558659146,263.31450495241637
67410,-597.9167838445755,263.31841117421095
67411,-660.8509944464515,263.3223173960056
67412,-683.3785522296497,263.32622361780017
67413,-663.1787251355678,263.33012983959475
67414,-634.5507328334293,263.3340360613894
67415,-642.4892476023172,263.33794228318396
67416,-705.4331823730739,263.3418485049786
67417,-801.119510837098,263.3457547267732
67418,-886.0252276481328,263.34966094856776
67419,-921.1439523892702,263.3535671703624
67420,-867.4700102922576,263.357473392157
67421,-651.2584454530544,263.3613796139516
67422,-149.0761091822238,263.3652858357462
67423,752.1308115382684,263.36919205754083
67424,2027.7785519336594,263.3730982793354
67425,3413.751430097135,263.37700450113
67426,4444.236611174153,263.3809107229246
67427,4659.505800149663,263.3848169447192
67428,3875.6328718239474,263.38872316651384
67429,2330.872699676713,263.3926293883084
67430,586.7239343229342,263.396535610103
67431,-768.9033721102751,263.40044183189764
67432,-1423.481541010498,263.4043480536922
67433,-1450.5957073067775,263.40825427548685
67434,-1177.0958976362977,263.41216049728143
67435,-928.5590216223122,263.41606671907607
67436,-843.2316112521869,263.41997294087065
67437,-863.5183691225025,263.42387916266523
67438,-864.1455510885692,263.42778538445987
67439,-784.4225967111146,263.43169160625445
67440,-661.6107919389872,263.4355978280491
67441,-567.5563255829336,263.43950404984366
67442,-530.5360974846078,263.44341027163824
67443,-516.7873474164553,263.4473164934329
67444,-475.5711830711691,263.45122271522746
67445,-392.5422800077429,263.4551289370221
67446,-299.22950822511996,263.4590351588167
67447,-236.9927295315099,263.4629413806113
67448,-216.75950545273255,263.4668476024059
67449,-212.8730068830416,263.4707538242005
67450,-191.34273508747788,263.4746600459951
67451,-141.07820279852882,263.4785662677897
67452,-79.50569817321545,263.4824724895843
67453,-32.44666963997204,263.4863787113789
67454,-11.251218248017189,263.4902849331735
67455,-7.734681970576249,263.4941911549681
67456,-6.887074063770587,263.4980973767627
67457,-1.3830487092601134,263.50200359855734
67458,5.648756792231151,263.5059098203519
67459,8.71022261391822,263.5098160421465
67460,7.865001755179787,263.51372226394113
67461,8.367875599883899,263.5176284857357
67462,14.047740126531686,263.52153470753035
67463,22.54418864204415,263.52544092932493
67464,27.32795390782441,263.52934715111957
67465,23.963540186160714,263.53325337291415
67466,14.330464280791997,263.5371595947087
67467,5.287091428321364,263.54106581650336
67468,3.601625406622819,263.54497203829794
67469,11.538481436925323,263.5488782600926
67470,25.862599285975673,263.55278448188716
67471,39.92867040349388,263.55669070368174
67472,46.98135125217918,263.5605969254764
67473,43.17100531364847,263.56450314727095
67474,29.477269302365215,263.5684093690656
67475,11.753476725737993,263.57231559086017
67476,-1.7794430101842669,263.5762218126548
67477,-4.997374049086918,263.5801280344494
67478,2.174758446987065,263.58403425624397
67479,13.332141164382048,263.5879404780386
67480,19.653122114298696,263.5918466998332
67481,16.008314379411637,263.5957529216278
67482,4.738044464434051,263.5996591434224
67483,-5.792245247433532,263.603565365217
67484,-6.820084741800775,263.6074715870116
67485,5.216132657702664,263.6113778088062
67486,27.09849543331831,263.61528403060083
67487,51.877494939944846,263.6191902523954
67488,73.53668927253999,263.62309647419005
67489,89.44515020709167,263.62700269598463
67490,99.25705977528449,263.6309089177792
67491,102.31420053549039,263.63481513957385
67492,96.78933135914453,263.6387213613684
67493,81.74654574096161,263.64262758316306
67494,59.988600947187564,263.64653380495764
67495,38.239092189244644,263.6504400267522
67496,23.34941854766072,263.65434624854686
67497,17.07511590544732,263.65825247034144
67498,13.978326344949007,263.6621586921361
67499,5.0110036599140875,263.66606491393065
67500,-15.33780462034298,263.66997113572523
67501,-43.855941618552976,263.67387735751987
67502,-69.88375351185536,263.67778357931445
67503,-82.58179250723813,263.6816898011091
67504,-78.78076118080455,263.68559602290367
67505,-65.28435873200219,263.6895022446983
67506,-53.780269661117785,263.6934084664929
67507,-52.36915594711874,263.69731468828746
67508,-60.316624389583374,263.7012209100821
67509,-69.83971802068015,263.7051271318767
67510,-72.95783048374763,263.7090333536713
67511,-67.5369583091785,263.7129395754659
67512,-57.79333452671846,263.7168457972605
67513,-49.49220478013824,263.7207520190551
67514,-44.48358361663269,263.7246582408497
67515,-39.374897915435135,263.72856446264433
67516,-29.210772229040206,263.7324706844389
67517,-12.65409670732755,263.73637690623355
67518,5.912696887751751,263.7402831280281
67519,19.101600138023812,263.7441893498227
67520,21.762309101173273,263.74809557161734
67521,14.674466811803313,263.7520017934119
67522,4.148736529934815,263.75590801520656
67523,-1.8624112138405566,263.75981423700114
67524,1.6007011620552576,263.7637204587957
67525,13.837659907479718,263.76762668059035
67526,28.99953383665519,263.77153290238493
67527,39.32452086370267,263.77543912417957
67528,39.45524504407081,263.77934534597415
67529,29.556053711037674,263.7832515677688
67530,15.161144319333285,263.78715778956337
67531,3.292810292379671,263.79106401135795
67532,-2.926424824319219,263.7949702331526
67533,-7.061798283501897,263.79887645494716
67534,-16.575615299420818,263.8027826767418
67535,-35.69385113704286,263.8066888985364
67536,-59.395476030254805,263.81059512033096
67537,-74.19687996674492,263.8145013421256
67538,-66.4733062917237,263.8184075639202
67539,-32.572767220736665,263.8223137857148
67540,17.408158801827067,263.8262200075094
67541,65.9356446652488,263.83012622930397
67542,100.17619738604029,263.8340324510986
67543,120.6644051264552,263.8379386728932
67544,139.57600836888784,263.8418448946878
67545,169.7992944350832,263.8457511164824
67546,213.3849413668347,263.84965733827704
67547,258.6194450694327,263.8535635600716
67548,288.2254183573172,263.8574697818662
67549,292.20462353652204,263.86137600366084
67550,274.6923361877793,263.8652822254554
67551,248.54998078714038,263.86918844725005
67552,221.50879572376002,263.87309466904463
67553,185.7382653173006,263.8770008908392
67554,121.4853364392405,263.88090711263385
67555,14.313758219211214,263.88481333442843
67556,-127.42730927036246,263.88871955622307
67557,-271.36232101804615,263.89262577801765
67558,-380.7374561628774,263.8965319998123
67559,-441.00363673403507,263.90043822160686
67560,-470.5054204578195,263.90434444340144
67561,-503.8569718258467,263.9082506651961
67562,-560.7664947977721,263.91215688699066
67563,-628.2651637249767,263.9160631087853
67564,-674.0501785586848,263.9199693305799
67565,-679.7947723090651,263.92387555237445
67566,-662.7309242599927,263.9277817741691
67567,-663.4409383781532,263.93168799596367
67568,-710.482345923519,263.9355942177583
67569,-795.7096761878129,263.9395004395529
67570,-882.0121934934061,263.94340666134747
67571,-928.0888078698131,263.9473128831421
67572,-893.5757250109418,263.9512191049367
67573,-711.7884082027113,263.9551253267313
67574,-267.81756332997224,263.9590315485259
67575,559.6525334770345,263.96293777032054
67576,1781.7143050815275,263.9668439921151
67577,3182.950574968373,263.9707502139097
67578,4323.68323243892,263.97465643570433
67579,4717.8389523180995,263.9785626574989
67580,4107.113031241355,263.98246887929355
67581,2649.8164103020335,263.98637510108813
67582,873.7862388293922,263.9902813228827
67583,-598.7167635451963,263.99418754467735
67584,-1378.6157014282649,263.9980937664719
67585,-1474.0908819869996,264.00199998826656
67586,-1197.5718729766272,264.00590621006114
67587,-909.5291662011906,264.0098124318558
67588,-796.0858087544883,264.01371865365036
67589,-822.5596125973973,264.01762487544494
67590,-851.5294888234049,264.0215310972396
67591,-795.1249979583553,264.02543731903415
67592,-675.8330174672203,264.0293435408288
67593,-573.3570208070646,264.03324976262337
67594,-534.1940554536695,264.03715598441795
67595,-533.6070935272951,264.0410622062126
67596,-512.6437981481654,264.04496842800717
67597,-440.2429774021044,264.0488746498018
67598,-337.84077826301626,264.0527808715964
67599,-250.87446039059776,264.056687093391
67600,-203.78180094530944,264.0605933151856
67601,-183.3445448609799,264.0644995369802
67602,-160.0794315181485,264.0684057587748
67603,-119.8346900990812,264.0723119805694
67604,-73.64073004595794,264.07621820236403
67605,-40.90538472615808,264.0801244241586
67606,-27.682323231213502,264.0840306459532
67607,-22.44009752240128,264.0879368677478
67608,-10.495739784265705,264.0918430895424
67609,10.407200637817033,264.09574931133704
67610,29.208867733224576,264.0996555331316
67611,34.18954776924201,264.1035617549262
67612,24.886361742485064,264.10746797672084
67613,11.83844614491257,264.1113741985154
67614,6.164686446461525,264.11528042031006
67615,10.278178707802276,264.11918664210464
67616,18.035288051412167,264.1230928638993
67617,22.3666415342047,264.12699908569385
67618,21.950536726002092,264.13090530748843
67619,21.096576351815493,264.13481152928307
67620,24.428143548482954,264.13871775107765
67621,32.30583588372831,264.1426239728723
67622,40.91019705164676,264.14653019466687
67623,45.83871588912441,264.15043641646145
67624,45.30330415690025,264.1543426382561
67625,40.439502531721935,264.15824886005066
67626,33.43567465640999,264.1621550818453
67627,25.79091023281965,264.1660613036399
67628,18.061947918186238,264.1699675254345
67629,10.617331574243583,264.1738737472291
67630,4.155095549987303,264.1777799690237
67631,-0.5697416814701163,264.1816861908183
67632,-3.3176305143925675,264.1855924126129
67633,-4.467387392010914,264.1894986344075
67634,-4.466703639013252,264.1934048562021
67635,-3.162661721723835,264.1973110779967
67636,0.32807368594414277,264.2012172997913
67637,7.081601184125654,264.2051235215859
67638,17.68327709639142,264.20902974338054
67639,32.040883575601384,264.2129359651751
67640,49.75797610643998,264.21684218696976
67641,70.3853712905796,264.22074840876434
67642,92.80827675615815,264.2246546305589
67643,113.97924963821491,264.22856085235355
67644,128.40716470443104,264.23246707414813
67645,129.8719036675085,264.23637329594277
67646,115.1356095303716,264.24027951773735
67647,87.13957732254264,264.24418573953193
67648,54.59883490920929,264.24809196132657
67649,27.253725012750063,264.25199818312115
67650,9.799043131943856,264.2559044049158
67651,-0.6975068280838863,264.25981062671036
67652,-11.43475761410645,264.26371684850494
67653,-27.114923889783704,264.2676230702996
67654,-45.57629614359176,264.27152929209416
67655,-59.82956499685334,264.2754355138888
67656,-64.82310730709753,264.2793417356834
67657,-62.722147758151024,264.283247957478
67658,-61.498560958661926,264.2871541792726
67659,-67.64545726441612,264.29106040106717
67660,-79.48481243222719,264.2949666228618
67661,-87.45844225843985,264.2988728446564
67662,-81.73441936095449,264.302779066451
67663,-60.78260528861924,264.3066852882456
67664,-33.416418002626884,264.3105915100402
67665,-12.36226836498988,264.3144977318348
67666,-4.751956147466069,264.3184039536294
67667,-7.459623221385925,264.32231017542404
67668,-10.767059389050992,264.3262163972186
67669,-6.611754287508992,264.33012261901325
67670,5.818671452983862,264.33402884080783
67671,21.29347599437799,264.3379350626024
67672,34.30335912765642,264.34184128439705
67673,43.49839511777891,264.3457475061916
67674,51.08276990446363,264.34965372798627
67675,58.80818727727211,264.35355994978084
67676,65.31285206438014,264.3574661715754
67677,67.5570039800671,264.36137239337006
67678,64.41462024997513,264.36527861516464
67679,58.12557900301947,264.3691848369593
67680,51.752114593768006,264.37309105875386
67681,45.385835432480555,264.37699728054844
67682,35.609820834457764,264.3809035023431
67683,19.490176652807882,264.38480972413765
67684,-0.7102179350478539,264.3887159459323
67685,-17.435082359891716,264.39262216772687
67686,-23.588077910630666,264.3965283895215
67687,-19.329072006646637,264.4004346113161
67688,-13.245702856065446,264.40434083311067
67689,-15.937651127861622,264.4082470549053
67690,-31.225264457365327,264.4121532766999
67691,-52.91743955442084,264.4160594984945
67692,-70.34545644598806,264.4199657202891
67693,-77.81341667008138,264.4238719420837
67694,-79.27797284885906,264.4277781638783
67695,-83.73007651365009,264.4316843856729
67696,-95.21667779720303,264.43559060746753
67697,-106.46917500008053,264.4394968292621
67698,-102.15022846881045,264.44340305105675
67699,-69.53677626597337,264.4473092728513
67700,-8.277921084752212,264.4512154946459
67701,68.2302136426564,264.45512171644054
67702,140.61762853988222,264.4590279382351
67703,194.5753768773062,264.46293416002976
67704,227.62613907844946,264.46684038182434
67705,247.856211528083,264.4707466036189
67706,266.4677868362065,264.47465282541356
67707,289.53972395071287,264.47855904720814
67708,314.0426617377965,264.4824652690028
67709,329.78775018529564,264.48637149079735
67710,325.0144690528031,264.490277712592
67711,291.38480268696196,264.49418393438657
67712,225.6330382311611,264.49809015618115
67713,128.80045977848349,264.5019963779758
67714,6.310865033409836,264.50590259977037
67715,-129.78080528859618,264.509808821565
67716,-259.786312888143,264.5137150433596
67717,-361.97876441404003,264.51762126515416
67718,-424.9560520011395,264.5215274869488
67719,-457.9538052973945,264.5254337087434
67720,-487.3432366975676,264.529339930538
67721,-537.2196295402287,264.5332461523326
67722,-608.057416470446,264.5371523741272
67723,-673.7546256091885,264.5410585959218
67724,-703.8223180615621,264.5449648177164
67725,-693.4001447517713,264.548871039511
67726,-672.7570846358003,264.5527772613056
67727,-684.4239580007013,264.55668348310024
67728,-747.0973939343814,264.5605897048948
67729,-839.5054619631138,264.5644959266894
67730,-916.7386810319915,264.56840214848404
67731,-935.0638626112511,264.5723083702786
67732,-850.032590991166,264.57621459207326
67733,-586.4635668192093,264.58012081386784
67734,-27.397376300869595,264.5840270356624
67735,925.0394920694057,264.58793325745705
67736,2225.658662132565,264.59183947925163
67737,3591.611656405113,264.59574570104627
67738,4550.03296620694,264.59965192284085
67739,4654.090727782725,264.6035581446355
67740,3753.338240003626,264.60746436643007
67741,2128.859816692747,264.61137058822464
67742,374.0397053681887,264.6152768100193
67743,-920.6667343087403,264.61918303181386
67744,-1473.1253797234272,264.6230892536085
67745,-1404.322148362169,264.6269954754031
67746,-1078.9948054584665,264.63090169719766
67747,-831.4370616413465,264.6348079189923
67748,-779.6778785592347,264.6387141407869
67749,-835.4594153175169,264.6426203625815
67750,-854.2342821768721,264.6465265843761
67751,-776.6199952653276,264.6504328061707
67752,-653.8524681709007,264.6543390279653
67753,-568.7894514096134,264.6582452497599
67754,-548.3726194187974,264.6621514715545
67755,-548.4594657413736,264.6660576933491
67756,-509.56186678897507,264.66996391514374
67757,-417.61469503985245,264.6738701369383
67758,-311.7290005514965,264.6777763587329
67759,-240.60592381647092,264.68168258052754
67760,-216.83557500634328,264.6855888023221
67761,-211.87811572071033,264.68949502411675
67762,-189.42145076839583,264.69340124591133
67763,-139.6664290333147,264.6973074677059
67764,-82.92617560549715,264.70121368950055
67765,-45.09923059071301,264.7051199112951
67766,-33.10567724080989,264.70902613308976
67767,-32.94234923918222,264.71293235488434
67768,-27.43781245598914,264.716838576679
67769,-12.914211147578527,264.72074479847356
67770,0.7924856268758962,264.72465102026814
67771,3.5338884062215374,264.7285572420628
67772,-4.146755111741713,264.73246346385736
67773,-12.519357191287941,264.736369685652
67774,-12.935950482125568,264.7402759074466
67775,-5.328174002271572,264.74418212924115
67776,3.7902398686624728,264.7480883510358
67777,9.09858332102295,264.75199457283037
67778,11.346804469920642,264.755900794625
67779,15.005211461031504,264.7598070164196
67780,22.207953824965838,264.7637132382142
67781,29.725702334946323,264.7676194600088
67782,31.91153348223579,264.7715256818034
67783,26.38125762821649,264.775431903598
67784,16.734546218349827,264.7793381253926
67785,9.707274958139251,264.78324434718724
67786,9.37965127429743,264.7871505689818
67787,13.636425369430501,264.7910567907764
67788,16.00678172544628,264.79496301257103
67789,11.355342749789571,264.7988692343656
67790,0.6115578180502579,264.80277545616025
67791,-9.544958140164173,264.8066816779548
67792,-11.969052269096174,264.81058789974946
67793,-4.963034882821258,264.81449412154404
67794,6.342887896169274,264.8184003433386
67795,14.7037371026419,264.82230656513326
67796,17.811785872193806,264.82621278692784
67797,21.420724326192897,264.8301190087225
67798,35.14136798340668,264.83402523051706
67799,63.77493475641222,264.83793145231164
67800,101.39655596155691,264.8418376741063
67801,133.68741565206574,264.84574389590085
67802,147.26333516161907,264.8496501176955
67803,138.6848053679525,264.85355633949007
67804,115.92025846364011,264.85746256128465
67805,91.38055968912664,264.8613687830793
67806,72.6755508184144,264.86527500487387
67807,58.71980955828792,264.8691812266685
67808,43.59308391578059,264.8730874484631
67809,23.630470076503116,264.8769936702577
67810,0.9412833118710698,264.8808998920523
67811,-19.31642445092794,264.8848061138469
67812,-34.37714837403747,264.8887123356415
67813,-46.248751194887994,264.8926185574361
67814,-58.836348042019615,264.89652477923073
67815,-73.13386150373583,264.9004310010253
67816,-85.68374511892668,264.9043372228199
67817,-92.00335940954336,264.9082434446145
67818,-91.47484497428945,264.9121496664091
67819,-88.5625824500347,264.91605588820374
67820,-88.77393885257473,264.9199621099983
67821,-92.9970776280988,264.92386833179296
67822,-95.64896723521942,264.92777455358754
67823,-88.73036064581439,264.9316807753821
67824,-68.56970041336658,264.93558699717676
67825,-39.6131711238037,264.93949321897134
67826,-12.115320828222547,264.943399440766
67827,4.418440478009403,264.94730566256055
67828,7.0404168175401995,264.95121188435513
67829,0.4631818011402742,264.95511810614977
67830,-6.651803578302994,264.95902432794435
67831,-7.046462995006415,264.962930549739
67832,1.7252466816838727,264.96683677153356
67833,17.316979374926674,264.97074299332814
67834,35.01901885028555,264.9746492151228
67835,50.47239827566665,264.97855543691736
67836,61.108631368618354,264.982461658712
67837,66.05889677417173,264.9863678805066
67838,65.27051277529762,264.9902741023012
67839,58.80499083536462,264.9941803240958
67840,46.897519750901225,264.9980865458904
67841,30.679271170684455,265.001992767685
67842,12.861176821121049,265.0058989894796
67843,-2.504717570138156,265.0098052112742
67844,-11.602179757774628,265.0137114330688
67845,-13.186013705912025,265.0176176548634
67846,-10.17348666962204,265.021523876658
67847,-8.949667754804732,265.0254300984526
67848,-16.074632022874976,265.02933632024724
67849,-34.02369410296532,265.0332425420418
67850,-58.86317617749738,265.03714876383646
67851,-82.06432262638427,265.04105498563104
67852,-95.95137879269815,265.0449612074256
67853,-99.25485713723266,265.04886742922025
67854,-98.36082863535785,265.05277365101483
67855,-102.40134101529082,265.05667987280947
67856,-114.98207142953666,265.06058609460405
67857,-128.6550863132327,265.0644923163986
67858,-127.20752066967654,265.06839853819326
67859,-95.53114129625723,265.07230475998784
67860,-30.876850079989442,265.0762109817825
67861,52.6771062150314,265.08011720357706
67862,130.69378394049824,265.0840234253717
67863,182.38740431581863,265.0879296471663
67864,203.06873567347154,265.09183586896086
67865,206.39232809335738,265.0957420907555
67866,214.46492765319954,265.0996483125501
67867,242.2868634347618,265.1035545343447
67868,287.12525294256017,265.1074607561393
67869,330.0288779022004,265.11136697793387
67870,347.9418865087555,265.1152731997285
67871,327.1849885813019,265.1191794215231
67872,268.57090361305086,265.1230856433177
67873,181.8248522826558,265.1269918651123
67874,76.22358948358655,265.1308980869069
67875,-42.9023308560335,265.1348043087015
67876,-168.9819592900955,265.1387105304961
67877,-287.7301360886912,265.14261675229073
67878,-379.77014709048257,265.1465229740853
67879,-433.8789485545474,265.15042919587995
67880,-459.3467924010504,265.15433541767453
67881,-482.80592232648837,265.1582416394691
67882,-527.7579133606591,265.16214786126375
67883,-593.3631092766495,265.1660540830583
67884,-653.7221669273608,265.16996030485296
67885,-681.7392440051447,265.17386652664754
67886,-676.9711220184403,265.1777727484421
67887,-669.9129269350749,265.18167897023676
67888,-696.2162518127923,265.18558519203134
67889,-764.4856274707258,265.189491413826
67890,-848.5939965950673,265.19339763562056
67891,-908.793007919104,265.1973038574152
67892,-911.5820877391795,265.2012100792098
67893,-816.8606438424267,265.20511630100435
67894,-542.4887105384641,265.209022522799
67895,38.61196091084017,265.21292874459357
67896,1021.3740292601086,265.2168349663882
67897,2336.6756569478807,265.2207411881828
67898,3669.312545776035,265.22464740997736
67899,4532.9487213521315,265.228553631772
67900,4506.264710392216,265.2324598535666
67901,3496.1518113087122,265.2363660753612
67902,1839.2198744945642,265.2402722971558
67903,145.9097498527965,265.24417851895043
67904,-1026.58263194134,265.248084740745
67905,-1457.6020563750224,265.2519909625396
67906,-1318.8544706043408,265.25589718433423
67907,-987.9055871500852,265.2598034061288
67908,-775.691905610506,265.26370962792345
67909,-764.6295464381978,265.267615849718
67910,-843.1467248889428,265.2715220715126
67911,-863.8071575870881,265.27542829330724
67912,-776.3574832862118,265.2793345151018
67913,-640.9377309895644,265.28324073689646
67914,-544.3800733357502,265.28714695869104
67915,-515.9143052190078,265.2910531804856
67916,-515.4135005660225,265.29495940228026
67917,-486.9121321320275,265.29886562407484
67918,-413.92239308269893,265.3027718458695
67919,-325.6621370334384,265.30667806766405
67920,-259.3598175255579,265.3105842894587
67921,-223.51159623595566,265.31449051125327
67922,-196.85081485091177,265.31839673304785
67923,-156.84626631650335,265.3223029548425
67924,-104.19691634645096,265.32620917663706
67925,-59.65724127058782,265.3301153984317
67926,-40.64384525178275,265.3340216202263
67927,-43.81562466697809,265.33792784202086
67928,-50.03926740905639,265.3418340638155
67929,-43.84759609516512,265.3457402856101
67930,-26.505898634417356,265.3496465074047
67931,-11.025430851471377,265.3535527291993
67932,-6.680215105604122,265.35745895099393
67933,-9.742518934444746,265.3613651727885
67934,-8.819867638046397,265.3652713945831
67935,2.2170066622366607,265.3691776163777
67936,17.445239165957247,265.3730838381723
67937,24.665989080239257,265.37699005996694
67938,17.451788873727615,265.3808962817615
67939,1.621450392171034,265.3848025035561
67940,-9.69348729503257,265.38870872535074
67941,-7.376662090358659,265.3926149471453
67942,6.364223843021303,265.39652116893996
67943,20.808692836419766,265.40042739073454
67944,26.46825088472997,265.4043336125291
67945,22.84561037060869,265.40823983432375
67946,17.715244712421487,265.41214605611833
67947,19.236689924431737,265.41605227791297
67948,28.30842758619065,265.41995849970755
67949,37.87068284334885,265.4238647215022
67950,39.39229066397612,265.42777094329676
67951,30.431233951213123,265.43167716509134
67952,16.48281936690225,265.435583386886
67953,5.742248359516001,265.43948960868056
67954,1.924836953350129,265.4433958304752
67955,1.9665996676979367,265.4473020522698
67956,0.7189429496758994,265.45120827406436
67957,-2.0244328852096247,265.455114495859
67958,0.668703512205938,265.4590207176536
67959,17.36542679218381,265.4629269394482
67960,49.50520171711271,265.4668331612428
67961,87.39413740474045,265.4707393830374
67962,115.29172476332214,265.474645604832
67963,122.07138711754097,265.4785518266266
67964,108.88911835715756,265.4824580484212
67965,87.60712293983535,265.4863642702158
67966,71.38226175186371,265.49027049201044
67967,65.13841560680201,265.494176713805
67968,63.26849988561939,265.4980829355996
67969,55.54802279606106,265.50198915739423
67970,35.671767174377564,265.5058953791888
67971,5.534801623108896,265.50980160098345
67972,-27.184416609069743,265.51370782277803
67973,-54.899452933401754,265.51761404457267
67974,-74.22995632033903,265.52152026636725
67975,-85.86712190212502,265.5254264881618
67976,-91.86884277220729,265.52933270995646
67977,-93.67253037176413,265.53323893175104
67978,-92.25330653638437,265.5371451535457
67979,-89.08963262569004,265.54105137534026
67980,-85.96732387576013,265.54495759713484
67981,-83.5294020688691,265.5488638189295
67982,-80.43883187877184,265.55277004072406
67983,-74.6518368595326,265.5566762625187
67984,-65.88895043568812,265.5605824843133
67985,-56.64485900660904,265.56448870610785
67986,-50.175476847588016,265.5683949279025
67987,-47.00404578159872,265.57230114969707
67988,-43.41684376374779,265.5762073714917
67989,-33.91798306328606,265.5801135932863
67990,-15.86661152368029,265.5840198150809
67991,7.817562160881478,265.5879260368755
67992,30.440423853473437,265.5918322586701
67993,46.26426906028844,265.5957384804647
67994,53.962016572826485,265.5996447022593
67995,55.993421523748815,265.60355092405393
67996,55.186309160081095,265.6074571458485
67997,52.396904602718905,265.6113633676431
67998,47.57212366174444,265.61526958943773
67999,42.503032071729976,265.6191758112323
68000,41.38544809506094,265.62308203302695
68001,47.50344523468402,265.6269882548215
68002,58.83418605475249,265.63089447661616
68003,67.40505791332458,265.63480069841074
68004,64.29345307609674,265.6387069202053
68005,46.73903239172545,265.64261314199996
68006,21.207870147531064,265.64651936379454
68007,-0.7318497459943574,265.6504255855892
68008,-10.706278500884917,265.65433180738376
68009,-9.30379056518466,265.65823802917834
68010,-4.778041522736386,265.662144250973
68011,-6.149719582186309,265.66605047276755
68012,-16.609551560737973,265.6699566945622
68013,-32.29712463845445,265.67386291635677
68014,-46.61880782600464,265.6777691381514
68015,-55.84444974239662,265.681675359946
68016,-61.37096034813421,265.68558158174056
68017,-67.42028847732149,265.6894878035352
68018,-76.71207535743636,265.6933940253298
68019,-87.81078347694313,265.6973002471244
68020,-96.06186988992727,265.701206468919
68021,-97.21846418738482,265.7051126907136
68022,-91.10456944823785,265.7090189125082
68023,-82.74624346127237,265.7129251343028
68024,-79.90008345979052,265.71683135609743
68025,-87.97750479336068,265.720737577892
68026,-105.1333768885033,265.7246437996866
68027,-120.81830808860397,265.7285500214812
68028,-119.66330290931467,265.7324562432758
68029,-89.45816182303837,265.73636246507044
68030,-28.90778950089541,265.740268686865
68031,49.90565147611004,265.74417490865966
68032,126.7471643803174,265.74808113045424
68033,183.70217833350648,265.7519873522488
68034,214.6343585222432,265.75589357404345
68035,227.45266065782914,265.75979979583803
68036,237.45885775574425,265.76370601763267
68037,256.1247220326402,265.76761223942725
68038,283.02172708128967,265.77151846122183
68039,306.43249400502685,265.77542468301647
68040,311.60433835517154,265.77933090481105
68041,289.6942807946713,265.7832371266057
68042,240.37689207705256,265.78714334840026
68043,167.36817075981153,265.7910495701949
68044,73.19085099025821,265.7949557919895
68045,-39.860251059253116,265.79886201378406
68046,-162.9794356259482,265.8027682355787
68047,-277.11825881951324,265.8066744573733
68048,-360.60256248270355,265.8105806791679
68049,-405.27001118243857,265.8144869009625
68050,-426.5701131142116,265.8183931227571
68051,-454.46996887369363,265.8222993445517
68052,-508.8238936112917,265.8262055663463
68053,-580.3603716916957,265.8301117881409
68054,-637.3822048940082,265.8340180099355
68055,-655.5797000957442,265.83792423173014
68056,-644.1428171936581,265.8418304535247
68057,-641.3769725876006,265.8457366753193
68058,-681.1529547929073,265.84964289711394
68059,-761.4171175986075,265.8535491189085
68060,-845.1509142577135,265.85745534070315
68061,-889.4348241408336,265.86136156249773
68062,-864.768269678575,265.8652677842923
68063,-735.0138490255777,265.86917400608695
68064,-418.32032686032903,265.87308022788153
68065,208.73404847818682,265.87698644967617
68066,1222.4487811745819,265.88089267147075
68067,2519.7331031551666,265.8847988932653
68068,3756.236300630781,265.88870511505996
68069,4451.161076137363,265.89261133685454
68070,4236.9814505509075,265.8965175586492
68071,3101.0893303890507,265.90042378044376
68072,1439.331893372706,265.9043300022384
68073,-140.44325016124532,265.908236224033
68074,-1145.990558246937,265.91214244582756
68075,-1441.4240186959914,265.9160486676222
68076,-1248.6363543804462,265.9199548894168
68077,-935.1224156236419,265.9238611112114
68078,-761.2211851325003,265.927767333006
68079,-763.4417878597189,265.93167355480057
68080,-821.7345214888969,265.9355797765952
68081,-814.4128878875738,265.9394859983898
68082,-720.7995955954826,265.9433922201844
68083,-606.5695681892419,265.947298441979
68084,-537.7273996557401,265.95120466377364
68085,-517.3694080995642,265.9551108855682
68086,-496.7186186451241,265.9590171073628
68087,-433.7051653950405,265.96292332915743
68088,-334.6410681263352,265.966829550952
68089,-242.98004464779586,265.97073577274665
68090,-194.99858335335756,265.97464199454123
68091,-189.07807592324554,265.9785482163358
68092,-193.9429979386346,265.98245443813045
68093,-180.69527797729094,265.986360659925
68094,-145.08049283480787,265.99026688171966
68095,-102.78922898008109,265.99417310351424
68096,-69.24379345134801,265.9980793253088
68097,-46.67511550168706,266.00198554710346
68098,-28.355728599229067,266.00589176889804
68099,-10.5142655151841,266.0097979906927
68100,2.850803034812259,266.01370421248726
68101,6.020745363394351,266.0176104342819
68102,-0.4424423998236606,266.02151665607647
68103,-9.375342187744495,266.02542287787105
68104,-14.045669622161924,266.0293290996657
68105,-13.961400332335261,266.03323532146027
68106,-13.119671501620836,266.0371415432549
68107,-13.445851004528896,266.0410477650495
68108,-11.466161451996724,266.04495398684406
68109,-2.240880002144724,266.0488602086387
68110,13.774443454143821,266.0527664304333
68111,28.7266445934538,266.0566726522279
68112,33.07040718049059,266.0605788740225
68113,23.922336913510364,266.06448509581713
68114,8.231432113064379,266.0683913176117
68115,-2.2334340948865616,266.0722975394063
68116,0.29484192570189593,266.07620376120093
68117,14.263502678500377,266.0801099829955
68118,30.68195058641679,266.08401620479015
68119,39.754459235380146,266.0879224265847
68120,36.72457173686912,266.0918286483793
68121,23.275937277837876,266.09573487017394
68122,4.993991705119049,266.0996410919685
68123,-12.104948096392665,266.10354731376316
68124,-23.589699719536245,266.10745353555774
68125,-26.93130730826381,266.1113597573524
68126,-21.19714176810998,266.11526597914695
68127,-6.925748166972337,266.11917220094153
68128,13.899475214857212,266.12307842273617
68129,38.17995050195566,266.12698464453075
68130,62.36678233887901,266.1308908663254
68131,83.13028384773898,266.13479708811997
68132,97.81560767465659,266.13870330991455
68133,104.7793676994444,266.1426095317092
68134,103.71402717570692,266.14651575350376
68135,95.76354266638967,266.1504219752984
68136,83.09808417469657,266.154328197093
68137,67.96290138538308,266.15823441888756
68138,51.73918562181246,266.1621406406822
68139,34.65413767099176,266.1660468624768
68140,16.28231067139194,266.1699530842714
68141,-3.6277437099291587,266.173859306066
68142,-24.598433530159532,266.17776552786063
68143,-45.358427121211555,266.1816717496552
68144,-64.10983455378012,266.1855779714498
68145,-78.97889148046048,266.1894841932444
68146,-88.67930634059836,266.193390415039
68147,-93.27482879725383,266.19729663683364
68148,-94.47195081334212,266.2012028586282
68149,-94.78012225756696,266.2051090804228
68150,-95.6829441539368,266.20901530221744
68151,-96.16323828344825,266.212921524012
68152,-93.18214493543607,266.21682774580665
68153,-84.2748226839271,266.22073396760123
68154,-70.28813201481736,266.22464018939587
68155,-55.58894885234477,266.22854641119045
68156,-44.97169013928237,266.23245263298503
68157,-39.61217066917662,266.23635885477967
68158,-35.76861653594076,266.24026507657425
68159,-27.812186389638153,266.2441712983689
68160,-13.187046167395913,266.24807752016346
68161,5.1826015570474135,266.25198374195804
68162,21.39567921285491,266.2558899637527
68163,31.725999121032153,266.25979618554726
68164,37.475156497542145,266.2637024073419
68165,42.68860491581696,266.2676086291365
68166,49.00893164094112,266.2715148509311
68167,53.040766504243976,266.2754210727257
68168,49.34952351102254,266.2793272945203
68169,36.52488405706131,266.2832335163149
68170,20.2224961166772,266.2871397381095
68171,9.566951486487747,266.2910459599041
68172,9.704006569889124,266.2949521816987
68173,17.39261607996524,266.2988584034933
68174,23.997440532488298,266.3027646252879
68175,23.21353896742749,266.3066708470825
68176,16.152537537662166,266.31057706887714
68177,8.891305799767917,266.3144832906717
68178,5.060892961704273,266.3183895124663
68179,1.1852711296430263,266.32229573426093
68180,-10.06040600577903,266.3262019560555
68181,-31.50727308599771,266.33010817785015
68182,-56.50105160567402,266.33401439964473
68183,-73.04570968822136,266.33792062143937
68184,-74.13525375856626,266.34182684323395
68185,-64.88245454251218,266.3457330650285
68186,-59.388501543511985,266.34963928682316
68187,-69.54213912761905,266.35354550861774
68188,-95.44506124236288,266.3574517304124
68189,-125.76176895591348,266.36135795220696
68190,-147.22811823324645,266.36526417400154
68191,-154.3369711993123,266.3691703957962
68192,-150.52706373731777,266.37307661759075
68193,-140.60962261542966,266.3769828393854
68194,-122.64512034550914,266.38088906117997
68195,-88.01666058640163,266.3847952829746
68196,-30.507100497290175,266.3887015047692
68197,43.871087407926105,266.39260772656377
68198,116.27647777353185,266.3965139483584
68199,166.15220239645004,266.400420170153
68200,186.1169773665317,266.4043263919476
68201,188.41817541637855,266.4082326137422
68202,196.63369374189858,266.4121388355368
68203,227.94188019994067,266.4160450573314
68204,279.2176324576776,266.419951279126
68205,327.7185238662502,266.42385750092063
68206,345.83233272237067,266.4277637227152
68207,318.3276237614094,266.43166994450985
68208,249.03043912323125,266.43557616630443
68209,153.2975114744272,266.439482388099
68210,44.89084050147102,266.44338860989365
68211,-70.19673847355992,266.4472948316882
68212,-188.54028920436284,266.45120105348286
68213,-300.6692926641143,266.45510727527744
68214,-391.0187305761863,266.459013497072
68215,-449.1504932663664,266.46291971886666
68216,-481.3169992935167,266.46682594066124
68217,-508.30989028868566,266.4707321624559
68218,-548.1858943021371,266.47463838425045
68219,-599.2357997890479,266.47854460604503
68220,-641.2514125403152,266.48245082783967
68221,-656.3757451978245,266.48635704963425
68222,-650.1254661948306,266.4902632714289
68223,-650.7575136377079,266.49416949322347
68224,-685.8671894634601,266.4980757150181
68225,-758.4368901545205,266.5019819368127
68226,-844.4242258831785,266.50588815860726
68227,-908.2242459849388,266.5097943804019
68228,-909.3335777264999,266.5137006021965
68229,-783.9455155146007,266.5176068239911
68230,-424.99049725618966,266.5215130457857
68231,289.6725672648041,266.5254192675803
68232,1399.782126624504,266.5293254893749
68233,2748.0853772384385,266.5332317111695
68234,3953.3295098061467,266.53713793296413
68235,4542.245719508179,266.5410441547587
68236,4197.268779724279,266.54495037655334
68237,2966.846085525286,266.5488565983479
68238,1280.712266033423,266.5527628201425
68239,-264.0982658699995,266.55666904193714
68240,-1216.5816701216295,266.5605752637317
68241,-1479.956121497758,266.56448148552636
68242,-1288.0972421647903,266.56838770732094
68243,-992.7989916764611,266.5722939291155
68244,-830.509709767204,266.57620015091015
68245,-826.0942195662661,266.58010637270473
68246,-865.3645548944999,266.58401259449937
68247,-839.6397382922273,266.58791881629395
68248,-735.0756524191977,266.59182503808853
68249,-614.1344253308159,266.59573125988317
68250,-536.4362793213816,266.59963748167775
68251,-504.3074544869469,266.6035437034724
68252,-475.46991437273624,266.60744992526696
68253,-415.2895730204109,266.6113561470616
68254,-330.9017400255707,266.6152623688562
68255,-258.1845660989597,266.61916859065076
68256,-222.39854678712035,266.6230748124454
68257,-214.53459004651842,266.62698103424
68258,-203.5673046032013,266.6308872560346
68259,-167.79384602424616,266.6347934778292
68260,-113.27874014851625,266.63869969962377
68261,-64.42875127664354,266.6426059214184
68262,-39.65981894637645,266.646512143213
68263,-36.44340447234774,266.6504183650076
68264,-37.367091019325336,266.6543245868022
68265,-28.046313874334416,266.65823080859684
68266,-8.977988069489138,266.6621370303914
68267,7.838327898792436,266.666043252186
68268,11.680675626529824,266.66994947398064
68269,2.5492006788467734,266.6738556957752
68270,-10.069666783587387,266.67776191756985
68271,-16.05330455525985,266.68166813936443
68272,-12.411266309471626,266.685574361159
68273,-3.9176128130918264,266.68948058295365
68274,2.551414388234959,266.69338680474823
68275,4.306175327161946,266.69729302654287
68276,4.5325785252814015,266.70119924833745
68277,8.511753767312827,266.7051054701321
68278,17.9883680168601,266.70901169192666
68279,28.663507298518844,266.71291791372124
68280,33.17889294812214,266.7168241355159
68281,27.348692104362605,266.72073035731046
68282,14.366072674457763,266.7246365791051
68283,2.972322938867193,266.7285428008997
68284,0.545551470806477,266.73244902269425
68285,6.7553023924831965,266.7363552444889
68286,13.506466822997677,266.74026146628347
68287,11.734574650749217,266.7441676880781
68288,-0.5452769508209867,266.7480739098727
68289,-16.0394574035468,266.75198013166727
68290,-24.011094209995182,266.7558863534619
68291,-19.159896903890708,266.7597925752565
68292,-5.685666243730617,266.7636987970511
68293,7.069020685217122,266.7676050188457
68294,13.376004225342491,266.77151124064034
68295,16.257113007509126,266.7754174624349
68296,24.31182862614877,266.7793236842295
68297,43.14632347433138,266.78322990602413
68298,69.18552237484019,266.7871361278187
68299,91.42298378105906,266.79104234961335
68300,99.54236895061376,266.79494857140793
68301,91.3815188152478,266.7988547932025
68302,73.65343813680259,266.80276101499715
68303,55.93259795341663,266.8066672367917
68304,43.438159892853875,266.81057345858636
68305,34.39945034478454,266.81447968038094
68306,23.202807325894305,266.8183859021756
68307,5.702543308982281,266.82229212397016
68308,-17.82649338524536,266.82619834576474
68309,-43.59820867146125,266.8301045675594
68310,-67.12581345165637,266.83401078935395
68311,-85.22473113962215,266.8379170111486
68312,-96.3809907132246,266.84182323294317
68313,-100.54222126503032,266.84572945473775
68314,-99.26580316741664,266.8496356765324
68315,-95.69866253016863,266.85354189832697
68316,-93.29636300487725,266.8574481201216
68317,-93.50444535985558,266.8613543419162
68318,-94.32873349728408,266.8652605637108
68319,-91.5623397187568,266.8691667855054
68320,-82.1251820313066,266.8730730073
68321,-66.75779750555705,266.8769792290946
68322,-49.64527556687174,266.8808854508892
68323,-35.32294476583037,266.88479167268383
68324,-25.696909442000482,266.8886978944784
68325,-19.67132998255171,266.892604116273
68326,-15.12390157362426,266.8965103380676
68327,-10.770051770071086,266.9004165598622
68328,-6.110942898054271,266.90432278165684
68329,-0.2779756586853894,266.9082290034514
68330,7.954679792982896,266.912135225246
68331,18.242849540921753,266.91604144704064
68332,26.92578538278722,266.9199476688352
68333,28.264896457320013,266.92385389062986
68334,18.729695443920324,266.92776011242444
68335,0.8093763994476226,266.9316663342191
68336,-17.594645805723797,266.93557255601365
68337,-28.39665144237371,266.93947877780823
68338,-28.921827499136548,266.94338499960287
68339,-23.03473999639877,266.94729122139745
68340,-17.126148372645567,266.9511974431921
68341,-15.130498190395198,266.95510366498667
68342,-17.311724253346192,266.95900988678125
68343,-23.17675099777345,266.9629161085759
68344,-34.137388775140735,266.96682233037046
68345,-51.66789009520256,266.9707285521651
68346,-71.98583223399291,266.9746347739597
68347,-83.35149308201284,266.9785409957543
68348,-71.13141542606367,266.9824472175489
68349,-28.69147654232678,266.9863534393435
68350,34.656231254701964,266.9902596611381
68351,96.91900904140049,266.9941658829327
68352,137.49872216829152,266.9980721047273
68353,151.8670517041677,267.0019783265219
68354,154.68171794226726,267.0058845483165
68355,167.81628607479425,267.0097907701111
68356,202.3212036705436,267.0136969919057
68357,248.97039170539708,267.01760321370034
68358,285.25543815256015,267.0215094354949
68359,292.69594100334336,267.0254156572895
68360,269.273929026472,267.02932187908414
68361,226.20606801994734,267.0332281008787
68362,172.85164590561007,267.03713432267335
68363,105.1687775613826,267.04104054446793
68364,10.301625697575592,267.04494676626257
68365,-115.88597483205822,267.04885298805715
68366,-255.70097109516348,267.05275920985173
68367,-376.2702021743252,267.05666543164637
68368,-453.0568019608297,267.06057165344095
68369,-489.5726136864704,267.0644778752356
68370,-513.6513950505632,267.06838409703016
68371,-551.8127925493818,267.07229031882474
68372,-605.1661946898109,267.0761965406194
68373,-650.502344392904,267.08010276241396
68374,-666.3380842325723,267.0840089842086
68375,-658.3179557963028,267.0879152060032
68376,-657.869593160468,267.0918214277978
68377,-694.5848397040993,267.0957276495924
68378,-769.6109755424418,267.09963387138697
68379,-854.9254268664702,267.1035400931816
68380,-912.4863517663462,267.1074463149762
68381,-902.1383361859635,267.1113525367708
68382,-760.8333263007604,267.1152587585654
68383,-380.37468084409824,267.11916498036
68384,362.36156746593406,267.1230712021546
68385,1502.4443794660594,267.1269774239492
68386,2869.675470438944,267.13088364574384
68387,4067.469728601723,267.1347898675384
68388,4617.119913964361,267.13869608933305
68389,4214.231398162175,267.14260231112763
68390,2934.678256057262,267.1465085329222
68391,1232.9619718457852,267.15041475471685
68392,-289.31159817988896,267.1543209765114
68393,-1200.7118449896543,267.15822719830607
68394,-1434.3496675282963,267.16213342010064
68395,-1242.8884501690072,267.1660396418952
68396,-973.3485972331795,267.16994586368986
68397,-839.6475237226368,267.17385208548444
68398,-844.9229146330987,267.1777583072791
68399,-870.1291018554359,267.18166452907366
68400,-820.0937772521361,267.18557075086824
68401,-700.3477333891226,267.1894769726629
68402,-583.5654689859762,267.19338319445745
68403,-524.6919860848872,267.1972894162521
68404,-512.7089454215562,267.20119563804667
68405,-494.2947836491368,267.2051018598413
68406,-432.40130092139736,267.2090080816359
68407,-338.61809226637195,267.21291430343047
68408,-254.32983925535456,267.2168205252251
68409,-207.70132728574953,267.2207267470197
68410,-190.7895949540635,267.2246329688143
68411,-174.14397127415344,267.2285391906089
68412,-138.25786178146464,267.2324454124035
68413,-89.54472238463237,267.2363516341981
68414,-49.107763738229565,267.2402578559927
68415,-30.13533647767668,267.24416407778733
68416,-27.159708116401177,267.2480702995819
68417,-24.637096757873145,267.25197652137655
68418,-12.75772071430097,267.2558827431711
68419,5.731586498980951,267.2597889649657
68420,21.86192237358675,267.26369518676034
68421,30.707547960542918,267.2676014085549
68422,34.74442958166008,267.27150763034956
68423,38.750858651344856,267.27541385214414
68424,43.56754571715859,267.2793200739387
68425,45.77169672276935,267.28322629573336
68426,42.84711975494439,267.28713251752794
68427,37.48735861895579,267.2910387393226
68428,36.04763743407575,267.29494496111715
68429,42.55824436989254,267.2988511829118
68430,54.25201619745192,267.30275740470637
68431,63.04959277009057,267.30666362650095
68432,61.86373291108807,267.3105698482956
68433,50.327057431356465,267.31447607009017
68434,35.17139925465284,267.3183822918848
68435,25.00757924773194,267.3222885136794
68436,23.692773795381807,267.32619473547396
68437,27.417106013647725,267.3301009572686
68438,27.667737747271197,267.3340071790632
68439,17.776554186821162,267.3379134008578
68440,-1.8652043558655245,267.3418196226524
68441,-23.7671268085375,267.345725844447
68442,-38.3712940988154,267.3496320662416
68443,-40.21674838169481,267.3535382880362
68444,-30.567402065861756,267.3574445098308
68445,-14.843447506153403,267.3613507316254
68446,2.4865620038089657,267.36525695342004
68447,20.926478320044694,267.3691631752146
68448,42.38707298203793,267.3730693970092
68449,66.90446748686759,267.37697561880384
68450,90.14485722934002,267.3808818405984
68451,105.56429062633482,267.38478806239306
68452,109.56960695481766,267.38869428418764
68453,104.81828445864336,267.3926005059822
68454,98.10593243529839,267.39650672777685
68455,94.2128193989549,267.40041294957143
68456,91.1816410586094,267.40431917136607
68457,81.76724064150805,267.40822539316065
68458,60.4568786859221,267.4121316149553
68459,30.079073897446747,267.41603783674987
68460,1.621814698063635,267.41994405854444
68461,-13.649187045480563,267.4238502803391
68462,-13.74218545057759,267.42775650213366
68463,-8.851145580095785,267.4316627239283
68464,-14.192081943497918,267.4355689457229
68465,-37.70979080394958,267.43947516751746
68466,-72.46274934989195,267.4433813893121
68467,-100.36613606897897,267.4472876111067
68468,-105.00929541067333,267.4511938329013
68469,-83.75261615140957,267.4551000546959
68470,-49.62622636545832,267.4590062764905
68471,-21.63837819379354,267.4629124982851
68472,-11.31276528513067,267.4668187200797
68473,-15.959254495357602,267.4707249418743
68474,-23.23508015190186,267.4746311636689
68475,-22.208540631805718,267.47853738546354
68476,-11.367955924259082,267.4824436072581
68477,2.425709058976259,267.4863498290527
68478,11.7657756158908,267.49025605084734
68479,15.528125463268582,267.4941622726419
68480,18.78036588899679,267.49806849443655
68481,26.786878479286756,267.50197471623113
68482,39.43485687174752,267.5058809380257
68483,51.34984470153702,267.50978715982035
68484,57.04700253488995,267.5136933816149
68485,55.66748317459897,267.51759960340956
68486,50.73112964802233,267.52150582520414
68487,45.68838209092532,267.5254120469988
68488,40.30777275000109,267.52931826879336
68489,31.8060990213947,267.53322449058794
68490,19.38485647394384,267.5371307123826
68491,6.97482500376419,267.54103693417716
68492,0.634578579130108,267.5449431559718
68493,2.673227070190491,267.5488493777664
68494,8.408876142313272,267.55275559956095
68495,9.338382871816135,267.5566618213556
68496,0.18945051766608678,267.56056804315017
68497,-16.8737145016435,267.5644742649448
68498,-35.188335831707434,267.5683804867394
68499,-50.90598051480846,267.572286708534
68500,-67.12076546948114,267.5761929303286
68501,-89.8476619504091,267.5800991521232
68502,-118.87969960787235,267.5840053739178
68503,-142.3848483890374,267.5879115957124
68504,-141.79157440695303,267.59181781750704
68505,-104.59589735627968,267.5957240393016
68506,-35.12849698866239,267.5996302610962
68507,45.919811829892,267.60353648289083
68508,113.68632934279388,267.6074427046854
68509,154.23693722087685,267.61134892648005
68510,171.67883889380323,267.6152551482746
68511,182.80591046920918,267.6191613700692
68512,204.07337256867936,267.62306759186384
68513,240.51853730951552,267.6269738136584
68514,283.6349772732385,267.63088003545306
68515,318.09357909251395,267.63478625724764
68516,331.2077204922618,267.6386924790423
68517,318.10587383865334,267.64259870083686
68518,279.7760046776291,267.64650492263144
68519,217.21725977438837,267.6504111444261
68520,128.35201595525274,267.65431736622065
68521,12.045202016711846,267.6582235880153
68522,-123.47040454101113,267.66212980980987
68523,-256.6399625658844,267.66603603160445
68524,-360.6097383106663,267.6699422533991
68525,-420.6057458084087,267.67384847519367
68526,-446.96961135884806,267.6777546969883
68527,-469.8199575112494,267.6816609187829
68528,-515.6436203482458,267.6855671405775
68529,-584.243853570953,267.6894733623721
68530,-648.1517786461384,267.6933795841667
68531,-678.3634579183195,267.6972858059613
68532,-674.47640199498,267.7011920277559
68533,-669.6666092702403,267.70509824955053
68534,-702.7300733958064,267.7090044713451
68535,-782.012115532144,267.7129106931397
68536,-875.771533506485,267.7168169149343
68537,-936.412419311989,267.7207231367289
68538,-927.4727869895188,267.72462935852354
68539,-815.952888770347,267.7285355803181
68540,-533.8480814116356,267.73244180211276
68541,35.99305075021567,267.73634802390734
68542,993.8937961519653,267.7402542457019
68543,2291.6303517694023,267.74416046749656
68544,3636.439900363684,267.74806668929114
68545,4547.088181785501,267.7519729110858
68546,4581.841166620479,267.75587913288035
68547,3613.006099479389,267.75978535467493
68548,1952.4238654947437,267.76369157646957
68549,213.8858189234974,267.76759779826415
68550,-1016.1910676504815,267.7715040200588
68551,-1483.4400435163088,267.77541024185336
68552,-1344.9420566417434,267.77931646364794
68553,-990.2097310184806,267.7832226854426
68554,-755.6632579686354,267.78712890723716
68555,-741.5681011329991,267.7910351290318
68556,-834.9468213268251,267.7949413508264
68557,-873.3753842668017,267.798847572621
68558,-793.3713186758359,267.8027537944156
68559,-654.0083273227908,267.8066600162102
68560,-550.6651344360739,267.8105662380048
68561,-519.9611055074852,267.8144724597994
68562,-520.4983100287086,267.818378681594
68563,-488.966416616595,267.8222849033886
68564,-404.498455516905,267.8261911251832
68565,-300.84491155307853,267.8300973469778
68566,-225.6721099937596,267.8340035687724
68567,-194.89971182425822,267.83790979056704
68568,-185.23113451302277,267.8418160123616
68569,-164.30975050257263,267.84572223415626
68570,-123.00391563336133,267.84962845595084
68571,-79.09765908002832,267.8535346777454
68572,-54.37359470364132,267.85744089954005
68573,-51.86939253477915,267.86134712133463
68574,-55.038912658546145,267.86525334312927
68575,-45.85991302729416,267.86915956492385
68576,-21.531741727337582,267.8730657867184
68577,5.5878456962779826,267.87697200851306
68578,21.64450666829937,267.88087823030764
68579,23.396392347134668,267.8847844521023
68580,18.191147068575795,267.88869067389686
68581,14.7438419039096,267.8925968956915
68582,15.485566282741015,267.8965031174861
68583,17.146234959644183,267.90040933928066
68584,16.65452075965328,267.9043155610753
68585,14.857819018771785,267.9082217828699
68586,14.51766881928772,267.9121280046645
68587,15.94488209981784,267.9160342264591
68588,15.91895998209559,267.91994044825367
68589,11.419924006712575,267.9238466700483
68590,4.1165902495755615,267.9277528918429
68591,0.3976548866360605,267.9316591136375
68592,6.027775014533601,267.9355653354321
68593,19.940253098996166,267.9394715572267
68594,33.06231253368176,267.9433777790213
68595,34.095591382560485,267.9472840008159
68596,18.264819108647117,267.95119022261053
68597,-7.808819391169143,267.9550964444051
68598,-29.339820637161065,267.95900266619975
68599,-32.83681983925524,267.96290888799433
68600,-15.036144508193232,267.9668151097889
68601,15.245816771336894,267.97072133158355
68602,43.66914232980048,267.9746275533781
68603,60.36188566811636,267.97853377517276
68604,65.89235145737155,267.98243999696734
68605,69.06480338889617,267.9863462187619
68606,78.8048065248086,267.99025244055656
68607,96.77477394869037,267.99415866235114
68608,116.26163365532346,267.9980648841458
68609,127.49452428715983,268.00197110594036
68610,124.5647675678772,268.005877327735
68611,108.56362132822582,268.0097835495296
68612,85.36922391508983,268.01368977132415
68613,60.93611299228972,268.0175959931188
68614,38.17308945845839,268.02150221491337
68615,17.10409812490144,268.025408436708
68616,-3.143618123766416,268.0293146585026
68617,-22.889427604968432,268.03322088029716
68618,-41.7836418213719,268.0371271020918
68619,-59.07291654477831,268.0410333238864
68620,-73.3765681636945,268.044939545681
68621,-82.5386250203193,268.0488457674756
68622,-84.7114440331854,268.0527519892702
68623,-80.44300222088918,268.0566582110648
68624,-73.6672129983665,268.0605644328594
68625,-69.67633872508837,268.06447065465403
68626,-70.91989524058185,268.0683768764486
68627,-74.26491685694478,268.07228309824325
68628,-72.91985936877175,268.0761893200378
68629,-62.23802627453716,268.0800955418324
68630,-44.571988981851135,268.08400176362704
68631,-28.426380454127173,268.0879079854216
68632,-21.910678128137747,268.09181420721626
68633,-25.833202146618937,268.09572042901084
68634,-32.592218853646514,268.0996266508054
68635,-32.168969795309565,268.10353287260006
68636,-20.23600315988739,268.10743909439464
68637,-1.4492089617849677,268.1113453161893
68638,14.74407248437198,268.11525153798385
68639,21.880658674968167,268.1191577597785
68640,21.073224871898105,268.12306398157307
68641,18.916194209323095,268.12697020336765
68642,21.2843594246608,268.1308764251623
68643,28.790842058197594,268.13478264695686
68644,37.37235144072294,268.1386888687515
68645,42.429703111352495,268.1425950905461
68646,42.186923046919084,268.14650131234066
68647,37.67592193089693,268.1504075341353
68648,30.560311546754264,268.1543137559299
68649,21.726739027500447,268.1582199777245
68650,11.795311948220927,268.1621261995191
68651,1.9854889369971525,268.16603242131373
68652,-6.537009226801183,268.1699386431083
68653,-14.35757574774507,268.1738448649029
68654,-24.133739044769356,268.1777510866975
68655,-38.29171488515422,268.1816573084921
68656,-56.114406563208206,268.18556353028674
68657,-73.707616568922,268.1894697520813
68658,-87.69304608593906,268.1933759738759
68659,-99.0580926205786,268.19728219567054
68660,-112.34546764840402,268.2011884174651
68661,-129.50024667437316,268.20509463925976
68662,-143.69162013970868,268.20900086105434
68663,-140.06059978979022,268.2129070828489
68664,-105.02303544179523,268.21681330464355
68665,-37.72656743010894,268.22071952643813
68666,45.983164576674355,268.22462574823277
68667,121.58164325344124,268.22853197002735
68668,170.80615982903694,268.232438191822
68669,192.62057927008289,268.23634441361656
68670,202.17220416565522,268.24025063541114
68671,218.81279917747733,268.2441568572058
68672,252.15424739217528,268.24806307900036
68673,295.86332302929844,268.251969300795
68674,332.54683178826065,268.2558755225896
68675,344.97052327512364,268.25978174438416
68676,325.00881653694717,268.2636879661788
68677,274.5335563579299,268.2675941879734
68678,199.41930969785386,268.271500409768
68679,103.49426499807294,268.2754066315626
68680,-11.09855207128253,268.2793128533572
68681,-137.28490600236097,268.2832190751518
68682,-257.8659242275255,268.2871252969464
68683,-350.3405876056986,268.291031518741
68684,-401.79053388110646,268.2949377405356
68685,-422.22217744475967,268.29884396233024
68686,-441.81648771791447,268.3027501841248
68687,-489.38147629094243,268.3066564059194
68688,-567.6874767990261,268.31056262771403
68689,-648.469835378965,268.3144688495086
68690,-695.2783974440308,268.31837507130325
68691,-696.4228718242912,268.32228129309783
68692,-677.8392520897846,268.32618751489247
68693,-682.0632165663337,268.33009373668705
68694,-731.6765081435271,268.3339999584816
68695,-811.3315344935976,268.33790618027626
68696,-882.6207532991616,268.34181240207084
68697,-908.6464015913141,268.3457186238655
68698,-851.8372792632217,268.34962484566006
68699,-641.2092383170204,268.35353106745464
68700,-155.61331078665856,268.3574372892493
68701,720.5326030782635,268.36134351104386
68702,1971.6053334907033,268.3652497328385
68703,3344.200604886611,268.3691559546331
68704,4376.813736302425,268.37306217642765
68705,4603.566293873404,268.3769683982223
68706,3829.0096629655222,268.38087462001687
68707,2285.388454303165,268.3847808418115
68708,540.6289394319842,268.3886870636061
68709,-802.913336429414,268.3925932854007
68710,-1423.5004179671284,268.3964995071953
68711,-1401.685977825984,268.4004057289899
68712,-1085.8712700141928,268.4043119507845
68713,-823.63672532639,268.4082181725791
68714,-759.7719946434688,268.41212439437373
68715,-822.6497635712753,268.4160306161683
68716,-862.033232307827,268.4199368379629
68717,-798.1438837420567,268.42384305975753
68718,-666.4833662777604,268.4277492815521
68719,-553.114827626009,268.43165550334675
68720,-504.8937283336983,268.4355617251413
68721,-498.3536060776796,268.43946794693596
68722,-479.4021513456979,268.44337416873054
68723,-420.5844754515898,268.4472803905251
68724,-339.58381375024135,268.45118661231976
68725,-271.17915335125025,268.45509283411434
68726,-229.85692394799452,268.458999055909
68727,-200.87156087211673,268.46290527770356
68728,-162.32755085983254,268.46681149949814
68729,-110.33929028299147,268.4707177212928
68730,-61.72061240574247,268.47462394308735
68731,-35.32723824732954,268.478530164882
68732,-33.77888888440678,268.48243638667657
68733,-43.02517489667403,268.4863426084712
68734,-46.89347592339819,268.4902488302658
68735,-40.11197115547389,268.49415505206036
68736,-28.263552158259053,268.498061273855
68737,-18.17307298849579,268.5019674956496
68738,-10.619087090239681,268.5058737174442
68739,-2.095655793105581,268.5097799392388
68740,8.47238596912343,268.5136861610334
68741,16.62860817995014,268.517592382828
68742,16.25399543346332,268.5214986046226
68743,5.912468196801951,268.52540482641723
68744,-8.905858704787061,268.5293110482118
68745,-19.47449804370153,268.5332172700064
68746,-19.61677586855621,268.537123491801
68747,-8.770908012846242,268.5410297135956
68748,8.980720835399843,268.54493593539024
68749,27.742366311744988,268.5488421571848
68750,42.08273651659489,268.55274837897946
68751,48.34638580007818,268.55665460077404
68752,45.73102943133361,268.5605608225686
68753,36.98212245868095,268.56446704436325
68754,27.446905491139304,268.56837326615783
68755,22.016294580067843,268.57227948795247
68756,21.75692694124154,268.57618570974705
68757,23.1808279116617,268.58009193154163
68758,21.325198249957495,268.58399815333627
68759,14.403467274551328,268.58790437513085
68760,6.025033403757011,268.5918105969255
68761,2.8335321509927507,268.59571681872006
68762,9.416182983603857,268.5996230405147
68763,24.844082898196405,268.6035292623093
68764,43.818757133398655,268.60743548410386
68765,61.282838022964505,268.6113417058985
68766,76.218721172225,268.6152479276931
68767,91.10070272229987,268.6191541494877
68768,107.49268790272728,268.6230603712823
68769,121.9942262707676,268.6269665930769
68770,126.72038925889399,268.6308728148715
68771,114.61543848013633,268.6347790366661
68772,85.48466923692081,268.6386852584607
68773,47.602433564487356,268.6425914802553
68774,13.14577866090108,268.6464977020499
68775,-9.307090768295176,268.6504039238445
68776,-19.610645165723746,268.6543101456391
68777,-24.818589056969927,268.65821636743374
68778,-33.27505439950432,268.6621225892283
68779,-48.749598533153296,268.66602881102295
68780,-68.66502687983133,268.66993503281753
68781,-86.830413280247,268.6738412546121
68782,-97.83503447318657,268.67774747640675
68783,-99.87165169880093,268.68165369820133
68784,-94.84916642134652,268.68555991999597
68785,-86.82275740891059,268.68946614179055
68786,-80.19584788403623,268.6933723635851
68787,-78.19528755065258,268.69727858537976
68788,-81.46462087029042,268.70118480717434
68789,-87.12155377218248,268.705091028969
68790,-89.37127897168759,268.70899725076356
68791,-82.28417344260058,268.7129034725582
68792,-63.543233056812596,268.7168096943528
68793,-36.534224826391124,268.72071591614736
68794,-8.851969124193833,268.724622137942
68795,12.060145082398924,268.7285283597366
68796,23.069873827962063,268.7324345815312
68797,26.378488735623275,268.7363408033258
68798,27.028441316774714,268.74024702512037
68799,29.201682488863668,268.744153246915
68800,34.09695968959401,268.7480594687096
68801,40.32538349257132,268.7519656905042
68802,45.604463428022534,268.7558719122988
68803,48.064000986159286,268.75977813409344
68804,46.695006018178994,268.763684355888
68805,41.619544442598254,268.7675905776826
68806,34.55789717075322,268.77149679947723
68807,28.713274245976443,268.7754030212718
68808,27.104016673158405,268.77930924306645
68809,29.912463043426005,268.78321546486103
68810,33.191697742623276,268.7871216866556
68811,30.953716521553623,268.79102790845025
68812,19.82538653436451,268.7949341302448
68813,2.5555503536098056,268.79884035203946
68814,-13.14837224947175,268.80274657383404
68815,-20.195956396867494,268.8066527956286
68816,-17.687732616943272,268.81055901742326
68817,-11.636680874839435,268.81446523921784
68818,-10.110184329216143,268.8183714610125
68819,-17.106910937619297,268.82227768280706
68820,-30.591386803481146,268.8261839046017
68821,-46.040474334584026,268.83009012639627
68822,-61.47477133616317,268.83399634819085
68823,-78.61146104439479,268.8379025699855
68824,-98.96342539627534,268.84180879178007
68825,-119.30371726719261,268.8457150135747
68826,-132.10855773810408,268.8496212353693
68827,-131.7582428486491,268.85352745716386
68828,-120.9143835200876,268.8574336789585
68829,-110.08109501672345,268.8613399007531
68830,-108.96689033660239,268.8652461225477
68831,-116.1790715489415,268.8691523443423
68832,-116.61878732960768,268.87305856613693
68833,-90.49157803701854,268.8769647879315
68834,-28.248157956707928,268.8808710097261
68835,59.914449717946596,268.88477723152073
68836,148.07450779045837,268.8886834533153
68837,210.21582044720756,268.89258967510995
68838,236.58182072871628,268.8964958969045
68839,238.93362190396005,268.9004021186991
68840,240.83584845759282,268.90430834049374
68841,260.0090439246646,268.9082145622883
68842,295.4811350736177,268.91212078408296
68843,328.41503161568755,268.91602700587754
68844,335.0269914739814,268.9199332276722
68845,301.1551195036569,268.92383944946675
68846,227.91321637045246,268.92774567126133
68847,126.40915698163148,268.93165189305597
68848,8.979521290869737,268.93555811485055
68849,-114.06655715150342,268.9394643366452
68850,-231.0303688030669,268.94337055843977
68851,-326.529893837672,268.94727678023435
68852,-387.9043417295423,268.951183002029
68853,-417.2716839773405,268.95508922382356
68854,-436.10496242292584,268.9589954456182
68855,-472.46265914128185,268.9629016674128
68856,-537.6789701408442,268.96680788920736
68857,-613.5271187901088,268.970714111002
68858,-665.5128544920963,268.9746203327966
68859,-674.1604961352126,268.9785265545912
68860,-656.0821483549065,268.9824327763858
68861,-652.8163997816293,268.98633899818043
68862,-695.4957562320083,268.990245219975
68863,-778.0859038909873,268.9941514417696
68864,-863.3597245026178,268.9980576635642
68865,-909.4612544553727,269.0019638853588
68866,-879.635260683058,269.00587010715344
68867,-716.8278413596693,269.009776328948
68868,-315.85113066787665,269.0136825507426
68869,446.33698716694136,269.01758877253724
68870,1601.2410249710265,269.0214949943318
68871,2965.9272270344763,269.02540121612645
68872,4125.699460862419,269.02930743792103
68873,4592.761849213846,269.03321365971567
68874,4077.5412669722177,269.03711988151025
68875,2695.700703763765,269.04102610330483
68876,947.9776926015136,269.04493232509947
68877,-539.3774712942402,269.04883854689405
68878,-1349.5664928948743,269.0527447686887
68879,-1462.7350143600845,269.05665099048326
68880,-1183.1475166385612,269.06055721227784
68881,-884.5781398311854,269.0644634340725
68882,-772.004954409502,269.06836965586706
68883,-817.0344638232956,269.0722758776617
68884,-871.0622640882598,269.0761820994563
68885,-828.3494122330799,269.08008832125086
68886,-702.2159110487905,269.0839945430455
68887,-578.3671256589054,269.0879007648401
68888,-517.9727640379606,269.0918069866347
68889,-507.67350267767887,269.0957132084293
68890,-489.8672980570657,269.0996194302239
68891,-427.3882803691222,269.1035256520185
68892,-335.22349128936685,269.1074318738131
68893,-256.2861100095147,269.1113380956077
68894,-215.27945939119482,269.1152443174023
68895,-199.03855072795113,269.11915053919694
68896,-177.5540532048544,269.1230567609915
68897,-137.97573365339355,269.1269629827861
68898,-95.65138837955746,269.13086920458073
68899,-74.29248171277345,269.1347754263753
68900,-79.06246114111565,269.13868164816995
68901,-90.50230650213962,269.14258786996453
68902,-83.57453207230147,269.14649409175917
68903,-51.2313208766802,269.15040031355375
68904,-9.773207619107744,269.1543065353483
68905,17.134037295969648,269.15821275714296
68906,18.935986673516354,269.16211897893754
68907,4.55470875231558,269.1660252007322
68908,-8.593856032661243,269.16993142252676
68909,-10.348475042423598,269.17383764432134
68910,-3.832731996825542,269.177743866116
68911,1.3975861487487389,269.18165008791055
68912,0.21880412498656554,269.1855563097052
68913,-3.8983110199427937,269.18946253149977
68914,-4.010229621810695,269.1933687532944
68915,2.3137563453385184,269.197274975089
68916,10.208263465558787,269.20118119688357
68917,12.075154281643062,269.2050874186782
68918,4.665789501054624,269.2089936404728
68919,-7.848421034622097,269.2128998622674
68920,-17.118746088712754,269.216806084062
68921,-16.88280013796296,269.2207123058566
68922,-6.972053344970747,269.2246185276512
68923,7.5226137197056255,269.2285247494458
68924,20.232859589105153,269.23243097124043
68925,26.983571470324552,269.236337193035
68926,26.645375557538575,269.2402434148296
68927,20.187421774142116,269.24414963662423
68928,10.006772285920116,269.2480558584188
68929,0.2576698596650848,269.25196208021345
68930,-3.1893229388782043,269.255868302008
68931,5.211426455957154,269.25977452380266
68932,27.0953455264262,269.26368074559724
68933,57.79558554733812,269.2675869673918
68934,87.73518562094318,269.27149318918646
68935,107.32844770882275,269.27539941098104
68936,112.06183531680593,269.2793056327757
68937,104.11095269997745,269.28321185457025
68938,89.66312776148847,269.28711807636483
68939,74.4628495260676,269.29102429815947
68940,60.975057260749296,269.29493051995405
68941,48.497794840133814,269.2988367417487
68942,34.90808834344497,269.30274296354327
68943,18.079477885596468,269.3066491853379
68944,-3.4992029408211702,269.3105554071325
68945,-29.964158802606587,269.31446162892706
68946,-58.77927177629783,269.3183678507217
68947,-84.27142391508806,269.3222740725163
68948,-99.81453530940843,269.3261802943109
68949,-102.28921908664672,269.3300865161055
68950,-95.459386360597,269.3339927379001
68951,-88.5393484287171,269.3378989596947
68952,-89.77952787085144,269.3418051814893
68953,-99.6470747142243,269.34571140328393
68954,-109.54301091013963,269.3496176250785
68955,-108.01253322016592,269.35352384687314
68956,-90.05418805296584,269.3574300686677
68957,-62.00260954796053,269.3613362904623
68958,-37.655399692416665,269.36524251225694
68959,-28.405065133375672,269.3691487340515
68960,-35.11368558537781,269.37305495584616
68961,-48.04349926224389,269.37696117764074
68962,-54.5683870999737,269.3808673994353
68963,-48.267561874353284,269.38477362122995
68964,-32.3855450368087,269.38867984302453
68965,-15.69875244004153,269.39258606481917
68966,-4.982320709699037,269.39649228661375
68967,-0.39959953503320333,269.40039850840833
68968,3.066526923495424,269.40430473020297
68969,10.305864443184774,269.40821095199755
68970,21.824973189299143,269.4121171737922
68971,33.788141764087214,269.41602339558676
68972,41.53194580902366,269.4199296173814
68973,43.05563127733332,269.423835839176
68974,39.73318908411223,269.42774206097056
68975,34.409802704164655,269.4316482827652
68976,29.183628868411706,269.4355545045598
68977,24.768294746709135,269.4394607263544
68978,21.260578545370308,269.443366948149
68979,18.746098475314984,269.44727316994357
68980,16.81601246638383,269.4511793917382
68981,13.816124179575551,269.4550856135328
68982,7.386846267064895,269.4589918353274
68983,-3.4437490006297438,269.462898057122
68984,-16.43175393834157,269.46680427891664
68985,-26.89026014947126,269.4707105007112
68986,-31.346334147443546,269.4746167225058
68987,-31.354332456837152,269.47852294430044
68988,-33.72762272129873,269.482429166095
68989,-45.93011391119477,269.48633538788965
68990,-69.63354100114532,269.49024160968423
68991,-97.77638773430881,269.4941478314788
68992,-118.36997734877949,269.49805405327345
68993,-122.996979159606,269.50196027506803
68994,-113.66037278355954,269.50586649686267
68995,-102.15323770731214,269.50977271865725
68996,-101.47849371105013,269.5136789404519
68997,-115.09583267817729,269.51758516224646
68998,-132.02933838330102,269.52149138404104
68999,-132.1914795377628,269.5253976058357
69000,-99.17007208837074,269.52930382763026
69001,-32.20751755153329,269.5332100494249
69002,50.93243708566039,269.5371162712195
69003,122.91570386100206,269.54102249301405
69004,162.62291510160838,269.5449287148087
69005,167.9380602823003,269.54883493660327
69006,157.02753145651192,269.5527411583979
69007,156.67473775911537,269.5566473801925
69008,184.8084646460213,269.56055360198707
69009,238.59186683076297,269.5644598237817
69010,295.85713002292187,269.5683660455763
69011,328.32562001830894,269.5722722673709
69012,316.83925606123785,269.5761784891655
69013,258.37202460297124,269.58008471096014
69014,162.28747710871085,269.5839909327547
69015,42.22204967124862,269.5878971545493
69016,-88.19670214061632,269.59180337634393
69017,-214.27787879325385,269.5957095981385
69018,-319.988974952267,269.59961581993315
69019,-394.1370331385368,269.60352204172773
69020,-439.6003771933338,269.6074282635223
69021,-474.6897361000862,269.61133448531695
69022,-520.2705379154747,269.6152407071115
69023,-580.9817787747506,269.61914692890616
69024,-638.7358842587512,269.62305315070074
69025,-668.4321856498452,269.6269593724954
69026,-664.1747324750877,269.63086559428996
69027,-650.6346542527306,269.63477181608454
69028,-665.4975388136061,269.6386780378792
69029,-727.2125039261427,269.64258425967375
69030,-818.6928398244002,269.6464904814684
69031,-901.6501566763637,269.65039670326297
69032,-941.1729370547026,269.65430292505755
69033,-904.7906732968194,269.6582091468522
69034,-728.9222711527377,269.66211536864677
69035,-295.63359657466765,269.6660215904414
69036,521.6574171316388,269.669927812236
69037,1736.8706572053077,269.67383403403056
69038,3134.09211307763,269.6777402558252
69039,4273.00311065232,269.6816464776198
69040,4669.859220394714,269.6855526994144
69041,4070.5292538025487,269.689458921209
69042,2634.2808858137814,269.69336514300363
69043,882.5808609161188,269.6972713647982
69044,-574.2750238731747,269.7011775865928
69045,-1357.2584137526871,269.7050838083874
69046,-1474.9391527572516,269.708990030182
69047,-1228.9420739563047,269.71289625197664
69048,-964.1469041252221,269.7168024737712
69049,-856.0974648554044,269.7207086955658
69050,-870.6145331051998,269.72461491736044
69051,-880.1850044227047,269.728521139155
69052,-808.7081853613748,269.73242736094966
69053,-684.6910611142928,269.73633358274424
69054,-585.5163337420464,269.7402398045389
69055,-550.4172302489985,269.74414602633345
69056,-548.6913151789047,269.74805224812803
69057,-521.2348916497244,269.75195846992267
69058,-442.5086790087757,269.75586469171725
69059,-340.64832671569184,269.7597709135119
69060,-263.27251949678805,269.76367713530647
69061,-229.68318631862923,269.76758335710105
69062,-216.77882579310386,269.7714895788957
69063,-187.29361566567957,269.77539580069026
69064,-127.9987257696551,269.7793020224849
69065,-60.728431156413585,269.7832082442795
69066,-19.431781831197103,269.7871144660741
69067,-18.52030610847983,269.7910206878687
69068,-41.95536586944035,269.7949269096633
69069,-59.57143001908667,269.7988331314579
69070,-52.3407681382042,269.8027393532525
69071,-24.03880537940639,269.8066455750471
69072,7.1862291535812455,269.8105517968417
69073,25.73876901637808,269.8144580186363
69074,28.395493123907443,269.8183642404309
69075,21.58604896775946,269.8222704622255
69076,12.64028962332093,269.82617668402014
69077,4.397345098302109,269.8300829058147
69078,-3.5536158953750805,269.8339891276093
69079,-10.828234286819033,269.83789534940394
69080,-14.62407299109518,269.8418015711985
69081,-11.826177391405743,269.84570779299315
69082,-2.048008323459308,269.84961401478773
69083,11.582922829963021,269.85352023658237
69084,24.373588583223867,269.85742645837695
69085,32.698062700282364,269.86133268017153
69086,35.17495401904353,269.86523890196617
69087,32.06906466086499,269.86914512376075
69088,24.22158570366642,269.8730513455554
69089,12.822211231291478,269.87695756734996
69090,0.04527417664340083,269.88086378914454
69091,-10.606687108870313,269.8847700109392
69092,-15.328056766675875,269.88867623273376
69093,-12.17532719434001,269.8925824545284
69094,-2.762459816602124,269.896488676323
69095,8.241117186164862,269.9003948981176
69096,16.01330492029672,269.9043011199122
69097,19.011691987151437,269.90820734170677
69098,20.26187856066114,269.9121135635014
69099,25.257535342441745,269.916019785296
69100,37.907902117398734,269.9199260070906
69101,57.62049256093626,269.9238322288852
69102,79.68421762032031,269.9277384506798
69103,98.36285323128905,269.9316446724744
69104,109.98898526101155,269.935550894269
69105,113.74975774794487,269.93945711606364
69106,110.24944238688289,269.9433633378582
69107,99.90947985751238,269.94726955965285
69108,82.9530791551006,269.95117578144743
69109,60.644163270788795,269.955082003242
69110,35.917853066182445,269.95898822503665
69111,12.1970882873214,269.9628944468312
69112,-8.697865227436921,269.96680066862587
69113,-27.389768737880054,269.97070689042044
69114,-45.42841306066734,269.974613112215
69115,-62.68945327100248,269.97851933400966
69116,-76.25115929892578,269.98242555580424
69117,-82.1284411927752,269.9863317775989
69118,-78.62498345456311,269.99023799939346
69119,-68.45742581373301,269.99414422118804
