,ecg,time
115200,-40.43415638900349,449.99935524266516
115201,-24.537366774367605,450.0032614870683
115202,-11.811856223102353,450.0071677314715
115203,-7.822510643674466,450.01107397587464
115204,-11.530538538283146,450.0149802202778
115205,-17.246124223545927,450.0188864646809
115206,-19.54730099418672,450.02279270908406
115207,-16.742538157143127,450.0266989534872
115208,-10.510254735785722,450.03060519789034
115209,-3.0993147653259197,450.03451144229354
115210,4.700151988585708,450.0384176866967
115211,13.073679834545466,450.0423239310998
115212,21.337459354516092,450.04623017550296
115213,27.227539609102852,450.0501364199061
115214,28.45764469049775,450.05404266430924
115215,25.16700474198732,450.0579489087124
115216,20.765638625401706,450.0618551531156
115217,20.032056528313973,450.0657613975187
115218,25.815564018735916,450.06966764192185
115219,37.01927511754445,450.073573886325
115220,49.52122067725832,450.07748013072813
115221,59.27647001112695,450.0813863751313
115222,65.12890615179944,450.0852926195344
115223,69.22630912268662,450.0891988639376
115224,74.94485779874344,450.09310510834075
115225,84.15800073776812,450.0970113527439
115226,96.01158989246848,450.10091759714703
115227,107.9742611609609,450.10482384155017
115228,118.06125795016337,450.1087300859533
115229,126.2883283341059,450.11263633035645
115230,134.18185561611594,450.11654257475965
115231,142.8354226083852,450.1204488191628
115232,151.1945700583591,450.12435506356593
115233,156.05098856189585,450.12826130796907
115234,153.85001127537873,450.1321675523722
115235,142.98715249548937,450.13607379677535
115236,124.90468753252995,450.1399800411785
115237,103.22752356724581,450.1438862855817
115238,81.61161276325647,450.1477925299848
115239,61.80274255117897,450.15169877438797
115240,43.08143927018106,450.1556050187911
115241,23.202677215281824,450.15951126319425
115242,0.022080788712508514,450.1634175075974
115243,-27.173182101732152,450.1673237520005
115244,-57.158464016013,450.17122999640367
115245,-87.08978050352368,450.17513624080686
115246,-113.40913456061621,450.17904248521
115247,-133.07258160540152,450.18294872961314
115248,-144.74125090084095,450.1868549740163
115249,-149.3927111908306,450.1907612184194
115250,-149.85303816488982,450.19466746282257
115251,-149.26629274392974,450.1985737072257
115252,-149.27663903624904,450.2024799516289
115253,-149.07562669535068,450.20638619603204
115254,-146.01776344255353,450.2102924404352
115255,-137.4577943032982,450.2141986848383
115256,-122.59651073758877,450.21810492924146
115257,-103.12370532766897,450.2220111736446
115258,-82.31109813353278,450.22591741804774
115259,-63.257471401461224,450.22982366245094
115260,-47.458553395938,450.2337299068541
115261,-34.51329217017853,450.2376361512572
115262,-22.955222114127857,450.24154239566036
115263,-11.521733984788145,450.2454486400635
115264,-0.029114794598270155,450.24935488446664
115265,10.613880943934719,450.2532611288698
115266,19.141370561996403,450.257167373273
115267,24.85249730620957,450.2610736176761
115268,28.079635467767844,450.26497986207926
115269,29.900675204933982,450.2688861064824
115270,31.34750523287613,450.27279235088554
115271,32.74271750215141,450.2766985952887
115272,33.678507581092845,450.2806048396918
115273,33.58607865459737,450.284511084095
115274,32.306073417310394,450.28841732849816
115275,30.08453431818698,450.2923235729013
115276,27.030881971837815,450.29622981730444
115277,22.711786243555846,450.3001360617076
115278,16.52232477860798,450.3040423061107
115279,8.682185158595551,450.30794855051386
115280,0.8769925965369271,450.31185479491705
115281,-4.384137191181861,450.3157610393202
115282,-5.540630214615983,450.31966728372333
115283,-3.521990537669585,450.3235735281265
115284,-1.5778725716045117,450.3274797725296
115285,-3.1985148361327704,450.33138601693275
115286,-9.595026300593231,450.3352922613359
115287,-18.746983282794453,450.3391985057391
115288,-26.83626842447636,450.34310475014223
115289,-30.935440131533777,450.34701099454537
115290,-30.81264974873362,450.3509172389485
115291,-28.54114712707822,450.35482348335165
115292,-26.49755729631196,450.3587297277548
115293,-25.5945400950368,450.36263597215793
115294,-25.156010792415152,450.36654221656113
115295,-24.231423925137726,450.37044846096427
115296,-22.903925729336787,450.3743547053674
115297,-22.350373115190635,450.37826094977055
115298,-23.71179373457265,450.3821671941737
115299,-26.91796899897208,450.38607343857683
115300,-30.526394536464466,450.38997968297997
115301,-32.63500825276573,450.39388592738317
115302,-32.06018211976945,450.3977921717863
115303,-28.96452498676855,450.40169841618945
115304,-24.740022904896694,450.4056046605926
115305,-21.438826251651037,450.4095109049957
115306,-21.016131341852656,450.41341714939887
115307,-24.449957558199795,450.417323393802
115308,-30.93354490724924,450.4212296382052
115309,-37.71948338580623,450.42513588260834
115310,-41.1858164583729,450.4290421270115
115311,-38.89758781746605,450.4329483714146
115312,-31.3815479105428,450.43685461581777
115313,-22.12040876154611,450.4407608602209
115314,-15.433078747090207,450.44466710462405
115315,-13.638201298476455,450.4485733490272
115316,-15.64777764489962,450.4524795934304
115317,-18.07761663919081,450.4563858378335
115318,-17.9106122983594,450.46029208223666
115319,-14.520684286088667,450.4641983266398
115320,-9.571448633952347,450.46810457104294
115321,-5.258105199130647,450.4720108154461
115322,-2.712116907790416,450.4759170598492
115323,-1.9091614456640686,450.4798233042524
115324,-2.702359462453373,450.48372954865556
115325,-5.447134065962616,450.4876357930587
115326,-10.2808770082231,450.49154203746184
115327,-15.828057748380257,450.495448281865
115328,-19.07359639594996,450.4993545262681
115329,-17.2169683323033,450.50326077067126
115330,-10.256165596255915,450.50716701507446
115331,-1.9003421923333537,450.5110732594776
115332,2.4982636480578586,450.51497950388074
115333,-0.2525076655360947,450.5188857482839
115334,-8.630313806531447,450.522791992687
115335,-17.307346105675872,450.52669823709016
115336,-20.97875749997777,450.5306044814933
115337,-18.15222869800578,450.5345107258965
115338,-11.957082533082847,450.53841697029964
115339,-7.465705404395008,450.5423232147028
115340,-7.792563372368512,450.5462294591059
115341,-12.046279544471421,450.55013570350906
115342,-16.507738479116703,450.5540419479122
115343,-17.759738597964578,450.55794819231534
115344,-15.126229520707358,450.56185443671853
115345,-10.664424344204404,450.5657606811217
115346,-7.119424304999025,450.5696669255248
115347,-5.787677205471589,450.57357316992795
115348,-5.980981190572769,450.5774794143311
115349,-6.198070912111106,450.58138565873423
115350,-5.693533683697055,450.5852919031374
115351,-5.034488998888651,450.58919814754057
115352,-5.338873197688316,450.5931043919437
115353,-7.079810961109666,450.59701063634685
115354,-9.58479123401563,450.60091688075
115355,-11.57989278989762,450.60482312515313
115356,-12.154170771839159,450.6087293695563
115357,-11.242573880149791,450.6126356139594
115358,-9.310816667419228,450.6165418583626
115359,-6.733502321431773,450.62044810276575
115360,-3.6008088305470123,450.6243543471689
115361,-0.16905506392108605,450.62826059157203
115362,2.577049519369126,450.63216683597517
115363,3.016255701181092,450.6360730803783
115364,-0.13081800635948393,450.63997932478145
115365,-6.549411873395567,450.64388556918465
115366,-13.828656049879893,450.6477918135878
115367,-18.32862005827579,450.6516980579909
115368,-17.094237102764666,450.65560430239407
115369,-9.705088872976251,450.6595105467972
115370,1.133372938814382,450.66341679120035
115371,10.769455503074889,450.6673230356035
115372,15.026016577376229,450.6712292800067
115373,12.524828008409322,450.6751355244098
115374,5.490089156395358,450.67904176881297
115375,-1.6044044760238387,450.6829480132161
115376,-4.848621232169057,450.68685425761925
115377,-3.3908001221399338,450.6907605020224
115378,0.149091033300094,450.6946667464255
115379,1.7528043983815047,450.69857299082867
115380,-0.9130858913422029,450.70247923523186
115381,-6.823192550609056,450.706385479635
115382,-12.785201413534798,450.71029172403814
115383,-16.63824717789069,450.7141979684413
115384,-19.775778044418317,450.7181042128444
115385,-26.635675714056447,450.72201045724756
115386,-41.19171886190422,450.7259167016507
115387,-63.024272873249416,450.7298229460539
115388,-86.08659408451913,450.73372919045704
115389,-101.3123718134546,450.7376354348602
115390,-101.33597023789879,450.7415416792633
115391,-84.12600563783104,450.74544792366646
115392,-53.32123148856528,450.7493541680696
115393,-15.555258026768378,450.75326041247274
115394,22.935176915217582,450.75716665687594
115395,58.01415802783446,450.7610729012791
115396,86.93881221603964,450.7649791456822
115397,106.63087535610498,450.76888539008536
115398,113.24972646456983,450.7727916344885
115399,104.2837526581436,450.77669787889164
115400,81.83097692803301,450.7806041232948
115401,53.75454121828905,450.784510367698
115402,30.167290422296652,450.7884166121011
115403,16.530018755335036,450.79232285650426
115404,8.736811688555026,450.7962291009074
115405,-4.387949334558654,450.80013534531054
115406,-31.39523094935536,450.8040415897137
115407,-68.89775234981133,450.8079478341168
115408,-101.98610679125628,450.81185407852
115409,-116.22792541126059,450.81576032292315
115410,-111.64660627973478,450.8196665673263
115411,-104.84167396069047,450.82357281172943
115412,-114.77877642322542,450.8274790561326
115413,-143.96638170904967,450.8313853005357
115414,-173.914711682655,450.83529154493885
115415,-182.24116134910764,450.83919778934205
115416,-167.00621754051772,450.8431040337452
115417,-153.20332437260362,450.84701027814833
115418,-170.52405450185844,450.8509165225515
115419,-220.2407635139221,450.8548227669546
115420,-264.335276308178,450.85872901135775
115421,-252.98834408522862,450.8626352557609
115422,-169.26998798480633,450.8665415001641
115423,-47.938715116531405,450.87044774456723
115424,55.678051495541695,450.87435398897037
115425,123.38830200594941,450.8782602333735
115426,203.28290659266582,450.88216647777665
115427,373.64976980367464,450.8860727221798
115428,663.0074036212532,450.88997896658293
115429,994.0695934243543,450.8938852109861
115430,1208.4256361857001,450.89779145538927
115431,1164.3254525708344,450.9016976997924
115432,836.3824370958675,450.90560394419555
115433,339.89136616356643,450.9095101885987
115434,-139.0992302333233,450.9134164330018
115435,-453.60681561535716,450.91732267740497
115436,-564.9542019504349,450.92122892180817
115437,-530.7181031913678,450.9251351662113
115438,-437.57509132564013,450.92904141061445
115439,-340.9602089191434,450.9329476550176
115440,-252.98138513620108,450.9368538994207
115441,-170.0262771404571,450.94076014382387
115442,-100.32695708278439,450.944666388227
115443,-63.243344306353265,450.9485726326302
115444,-67.38528806728412,450.95247887703334
115445,-96.1404962506999,450.9563851214365
115446,-118.19617487174955,450.9602913658396
115447,-112.82442429714297,450.96419761024276
115448,-84.96173445752802,450.9681038546459
115449,-56.682241670467214,450.97201009904904
115450,-45.27633925039601,450.9759163434522
115451,-49.42346412049273,450.9798225878554
115452,-54.49229720492584,450.9837288322585
115453,-48.66074953082752,450.98763507666166
115454,-33.0089805798245,450.9915413210648
115455,-17.478628483623687,450.99544756546794
115456,-9.470722542328712,450.9993538098711
115457,-7.549561322520956,451.0032600542742
115458,-5.300248602333626,451.0071662986774
115459,0.6117641309179205,451.01107254308056
115460,7.2288404774264405,451.0149787874837
115461,9.439086896082888,451.01888503188684
115462,5.964186264826329,451.02279127629
115463,0.5982821882002249,451.0266975206931
115464,-2.0278447641753115,451.03060376509626
115465,-1.0817699864521297,451.03451000949946
115466,0.2872461641279096,451.0384162539026
115467,-1.137763195996515,451.04232249830574
115468,-5.169642408735806,451.0462287427089
115469,-8.730288700323946,451.050134987112
115470,-9.38056674651568,451.05404123151516
115471,-7.902410567111978,451.0579474759183
115472,-7.346683428728689,451.0618537203215
115473,-9.80454862626673,451.06575996472463
115474,-14.329413191768076,451.0696662091278
115475,-17.973991821846962,451.0735724535309
115476,-18.68305592989173,451.07747869793405
115477,-17.140838282326328,451.0813849423372
115478,-15.980019690597349,451.08529118674033
115479,-17.379357362816393,451.08919743114353
115480,-21.377792960257,451.0931036755467
115481,-26.22103928825074,451.0970099199498
115482,-30.034697709234088,451.10091616435295
115483,-32.09168777465621,451.1048224087561
115484,-32.663830831805114,451.10872865315923
115485,-31.957078093284323,451.1126348975624
115486,-29.423691342057552,451.11654114196557
115487,-24.20784746426721,451.1204473863687
115488,-16.274832452881448,451.12435363077185
115489,-7.0575770207787825,451.128259875175
115490,1.1663076571339084,451.13216611957813
115491,6.849648553749299,451.13607236398127
115492,10.49990419665308,451.1399786083844
115493,14.616372698937933,451.1438848527876
115494,22.10555521286191,451.14779109719075
115495,34.22924948583505,451.1516973415939
115496,49.592353194580845,451.155603585997
115497,64.98502694210985,451.15950983040017
115498,77.52363546131511,451.1634160748033
115499,86.53267539968564,451.16732231920645
115500,93.79647637629832,451.17122856360965
115501,102.07550884425953,451.1751348080128
115502,113.11318593272284,451.1790410524159
115503,126.6562558934169,451.18294729681907
115504,141.04842350561535,451.1868535412222
115505,154.60202119202773,451.19075978562535
115506,166.4072709603789,451.1946660300285
115507,175.9460195016553,451.1985722744317
115508,182.11979539767054,451.2024785188348
115509,182.88788772238817,451.20638476323796
115510,176.10180522974414,451.2102910076411
115511,160.93163717296378,451.21419725204424
115512,138.65713042405392,451.2181034964474
115513,112.11437897345495,451.2220097408505
115514,84.2225394689934,451.22591598525366
115515,56.70261861765405,451.22982222965686
115516,29.786189722136562,451.23372847406
115517,2.8232852957074095,451.23763471846314
115518,-24.881399966746734,451.2415409628663
115519,-53.52403992913965,451.2454472072694
115520,-82.56933709284144,451.24935345167256
115521,-110.6478413156144,451.2532596960757
115522,-135.6407394457505,451.2571659404789
115523,-155.22097506064694,451.26107218488204
115524,-167.84459651188544,451.2649784292852
115525,-173.61393098790901,451.2688846736883
115526,-174.2540366559327,451.27279091809146
115527,-172.0432333212978,451.2766971624946
115528,-168.4531330155418,451.28060340689774
115529,-163.55991545415247,451.28450965130094
115530,-156.59510687808915,451.2884158957041
115531,-146.95493587385357,451.2923221401072
115532,-134.65610590911567,451.29622838451036
115533,-119.96894842544528,451.3001346289135
115534,-102.96838309480657,451.30404087331664
115535,-83.86236123708102,451.3079471177198
115536,-63.96030906672087,451.311853362123
115537,-46.08943521987909,451.3157596065261
115538,-33.44193900689805,451.31966585092925
115539,-27.320509371658968,451.3235720953324
115540,-25.646457263737645,451.32747833973553
115541,-23.853118527419944,451.3313845841387
115542,-17.850453058374516,451.3352908285418
115543,-6.806869318575185,451.339197072945
115544,6.551320675785448,451.34310331734815
115545,18.361836053017782,451.3470095617513
115546,26.65053042820034,451.35091580615443
115547,32.36290246808224,451.3548220505576
115548,37.679374999929514,451.3587282949607
115549,43.37433670357075,451.36263453936385
115550,47.77079935303149,451.36654078376705
115551,48.248293536034154,451.3704470281702
115552,43.82974719338218,451.37435327257333
115553,36.38958324130468,451.37825951697647
115554,29.35039383699413,451.3821657613796
115555,25.055286563227398,451.38607200578275
115556,23.146995455219034,451.3899782501859
115557,21.277739541746925,451.3938844945891
115558,17.35832535544293,451.3977907389922
115559,11.299635752499373,451.40169698339537
115560,4.840455698533981,451.4056032277985
115561,-0.1532426716442638,451.40950947220165
115562,-3.2763291133921464,451.4134157166048
115563,-5.7236044076812576,451.41732196100793
115564,-9.050270653171678,451.4212282054111
115565,-13.780554671736285,451.42513444981427
115566,-19.049220247952118,451.4290406942174
115567,-23.430821639800335,451.43294693862055
115568,-26.103319459380643,451.4368531830237
115569,-27.338254281546668,451.4407594274268
115570,-28.006354179348236,451.44466567182997
115571,-28.64712496858415,451.44857191623316
115572,-28.96237717570296,451.4524781606363
115573,-28.173643581156128,451.45638440503944
115574,-25.927093576907396,451.4602906494426
115575,-22.945827348078478,451.4641968938457
115576,-20.792798365989523,451.46810313824886
115577,-20.80813185270629,451.472009382652
115578,-22.999237721930253,451.4759156270552
115579,-25.80950934320742,451.47982187145834
115580,-27.077804848449166,451.4837281158615
115581,-25.544742350286228,451.4876343602646
115582,-21.74247981262763,451.49154060466776
115583,-17.532436913417342,451.4954468490709
115584,-14.657947982811855,451.49935309347404
115585,-13.530938431487124,451.5032593378772
115586,-13.27507245253054,451.5071655822804
115587,-12.908804508476035,451.5110718266835
115588,-12.482711438666906,451.51497807108666
115589,-13.014876273976832,451.5188843154898
115590,-15.236862327593242,451.52279055989294
115591,-18.395826030690856,451.5266968042961
115592,-20.433957558036457,451.5306030486992
115593,-19.6122091754688,451.5345092931024
115594,-16.192812207446124,451.53841553750556
115595,-12.559808284768176,451.5423217819087
115596,-11.470732541557304,451.54622802631184
115597,-13.848580139499106,451.550134270715
115598,-18.038228587724685,451.5540405151181
115599,-21.219541127742772,451.55794675952126
115600,-21.763317181893264,451.56185300392445
115601,-20.46981344057966,451.5657592483276
115602,-19.6313008139063,451.56966549273073
115603,-20.80924135220862,451.5735717371339
115604,-23.344996217721956,451.577477981537
115605,-24.920823111990764,451.58138422594016
115606,-23.620400949689866,451.5852904703433
115607,-19.61303766030899,451.5891967147465
115608,-14.981628133080296,451.59310295914963
115609,-11.923728443080726,451.5970092035528
115610,-10.99587527500345,451.6009154479559
115611,-10.952557688320265,451.60482169235905
115612,-10.212740157130707,451.6087279367622
115613,-8.49404854010206,451.61263418116533
115614,-7.052621773850209,451.61654042556853
115615,-7.320461133158136,451.62044666997167
115616,-9.269931374773716,451.6243529143748
115617,-11.124823695427612,451.62825915877795
115618,-10.797936563334208,451.6321654031811
115619,-7.797575325845294,451.63607164758423
115620,-3.828500403817879,451.63997789198737
115621,-1.4353127930149745,451.64388413639057
115622,-1.817185632137559,451.6477903807937
115623,-3.761713546335412,451.65169662519685
115624,-4.710418100938641,451.6556028696
115625,-3.0689828640482846,451.65950911400313
115626,0.2857003865536565,451.66341535840627
115627,2.68643128867072,451.6673216028094
115628,1.9898543656032057,451.6712278472126
115629,-1.5148343891928886,451.67513409161575
115630,-5.308384187192154,451.6790403360189
115631,-6.780517864925362,451.682946580422
115632,-5.395285088823512,451.68685282482517
115633,-2.9661934291928125,451.6907590692283
115634,-1.8601412641135107,451.69466531363145
115635,-2.83429218513125,451.69857155803464
115636,-4.507687338963468,451.7024778024378
115637,-4.9101084633935255,451.7063840468409
115638,-3.5911145401467586,451.71029029124406
115639,-2.241241753058379,451.7141965356472
115640,-3.1710059592810764,451.71810278005034
115641,-7.014543502654837,451.7220090244535
115642,-11.796652343202073,451.7259152688567
115643,-14.310840679087992,451.7298215132598
115644,-12.694326598929582,451.73372775766296
115645,-8.02008662352623,451.7376340020661
115646,-3.580799748749741,451.74154024646924
115647,-2.500159560649331,451.7454464908724
115648,-5.627870234899916,451.7493527352755
115649,-11.27948284125888,451.75325897967866
115650,-16.7581120168561,451.75716522408186
115651,-20.229707619507465,451.761071468485
115652,-21.511173922200243,451.76497771288814
115653,-21.47233533014007,451.7688839572913
115654,-20.903357266487625,451.7727902016944
115655,-19.90066682230115,451.77669644609756
115656,-18.108619454713228,451.7806026905007
115657,-15.339464657101463,451.7845089349039
115658,-11.908527589684597,451.78841517930704
115659,-8.465577496946857,451.7923214237102
115660,-5.60430132734397,451.7962276681133
115661,-3.6119057987643535,451.80013391251646
115662,-2.442539116414661,451.8040401569196
115663,-1.7765897384973914,451.80794640132274
115664,-1.1001479998761474,451.81185264572593
115665,0.08850688696959402,451.8157588901291
115666,1.9004735508500499,451.8196651345322
115667,3.7659359325253208,451.82357137893536
115668,4.647002495517594,451.8274776233385
115669,3.8297578473814182,451.83138386774164
115670,1.7279869374176502,451.8352901121448
115671,-0.16151721114424422,451.839196356548
115672,-0.4801432966194503,451.8431026009511
115673,0.32997836245751244,451.84700884535425
115674,-0.6716925755345975,451.8509150897574
115675,-7.702489426303881,451.85482133416053
115676,-23.53666718196491,451.8587275785637
115677,-46.96557379675431,451.8626338229668
115678,-72.23846997614743,451.86654006737
115679,-91.12388834912565,451.87044631177315
115680,-96.5869212204363,451.8743525561763
115681,-86.03592386490314,451.87825880057943
115682,-62.28299460424626,451.88216504498257
115683,-31.676414656843953,451.8860712893857
115684,-0.5940377488007935,451.88997753378885
115685,27.37666490281937,451.89388377819205
115686,51.60413287399183,451.8977900225952
115687,71.93357458984185,451.90169626699833
115688,85.96042028804341,451.90560251140147
115689,89.13707775507339,451.9095087558046
115690,78.51400756907742,451.91341500020775
115691,57.06451775597192,451.9173212446109
115692,33.7712135082446,451.9212274890141
115693,17.64960896048341,451.9251337334172
115694,9.935644335999552,451.92903997782037
115695,2.0231128981624713,451.9329462222235
115696,-17.17843595885819,451.93685246662665
115697,-49.82017433145522,451.9407587110298
115698,-84.61744699227569,451.9446649554329
115699,-105.4625904214701,451.9485711998361
115700,-106.7468389410929,451.95247744423926
115701,-100.53440359172362,451.9563836886424
115702,-106.51722506165288,451.96028993304554
115703,-132.42059499918713,451.9641961774487
115704,-164.22992226914772,451.9681024218518
115705,-178.51197630166502,451.97200866625496
115706,-167.28497218544703,451.97591491065816
115707,-150.31360994735428,451.9798211550613
115708,-158.53832267421893,451.98372739946444
115709,-200.63272312191907,451.9876336438676
115710,-245.463747116016,451.9915398882707
115711,-242.72313034165387,451.99544613267386
115712,-167.69624357227372,451.999352377077
115713,-47.93141182181337,452.0032586214802
115714,59.391974836298495,452.00716486588334
115715,125.03476955347833,452.0110711102865
115716,186.90829062184406,452.0149773546896
115717,325.98909579593334,452.01888359909276
115718,588.6362609921493,452.0227898434959
115719,918.9688592803709,452.02669608789904
115720,1166.3716005627796,452.0306023323022
115721,1174.9032162911224,452.0345085767054
115722,891.3712143725662,452.0384148211085
115723,408.8214437878604,452.04232106551166
115724,-88.57241617528317,452.0462273099148
115725,-436.30611996067546,452.05013355431794
115726,-573.6754506542627,452.0540397987211
115727,-547.542453440441,452.0579460431242
115728,-449.52527857865846,452.0618522875274
115729,-347.07975503874604,452.06575853193056
115730,-259.3872560910469,452.0696647763337
115731,-180.31892301539693,452.07357102073684
115732,-111.27847652877105,452.07747726514
115733,-68.87015759824976,452.0813835095431
115734,-65.91387667078182,452.08528975394626
115735,-92.2509210025857,452.08919599834945
115736,-118.46559306373355,452.0931022427526
115737,-119.28521128646302,452.09700848715573
115738,-93.22484785959033,452.1009147315589
115739,-60.20462906732362,452.104820975962
115740,-41.372199003569506,452.10872722036515
115741,-41.368117732983706,452.1126334647683
115742,-48.26522628307255,452.1165397091715
115743,-47.96540411066378,452.12044595357463
115744,-37.273250435079675,452.12435219797777
115745,-24.048230548512358,452.1282584423809
115746,-17.043905398821863,452.13216468678405
115747,-17.153339756401596,452.1360709311872
115748,-18.10622023130272,452.13997717559033
115749,-14.060532438894729,452.14388341999353
115750,-5.420098903270574,452.14778966439667
115751,2.411687172307608,452.1516959087998
115752,4.836467009202515,452.15560215320295
115753,2.06541787837408,452.1595083976061
115754,-2.035236317301816,452.16341464200923
115755,-4.062854069262925,452.16732088641237
115756,-3.730454867293714,452.17122713081557
115757,-3.091206493030361,452.1751333752187
115758,-4.054127186802463,452.17903961962185
115759,-6.947092535989345,452.182945864025
115760,-10.978146524922543,452.1868521084281
115761,-15.321721324273355,452.19075835283127
115762,-19.45404411842587,452.1946645972344
115763,-22.80586083061023,452.1985708416376
115764,-24.725001325825914,452.20247708604074
115765,-25.120089858884796,452.2063833304439
115766,-24.997970500167256,452.210289574847
115767,-25.980968503837456,452.21419581925016
115768,-28.997693768468732,452.2181020636533
115769,-33.36711694361869,452.22200830805645
115770,-37.2189770028153,452.22591455245964
115771,-38.886051460324396,452.2298207968628
115772,-37.9707072796688,452.2337270412659
115773,-35.185755534554545,452.23763328566906
115774,-31.31308763498607,452.2415395300722
115775,-26.400804959884244,452.24544577447534
115776,-19.91648044372666,452.2493520188785
115777,-11.540055480376981,452.2532582632817
115778,-1.7192198782787471,452.2571645076848
115779,8.50776817460929,452.26107075208796
115780,18.139758809102133,452.2649769964911
115781,26.681979176896686,452.26888324089424
115782,34.18946215002555,452.2727894852974
115783,41.095622386723925,452.2766957297005
115784,48.08245487401781,452.28060197410366
115785,55.91781180323375,452.28450821850686
115786,65.02929955030307,452.28841446291
115787,74.92289689774364,452.29232070731314
115788,84.02429051374548,452.2962269517163
115789,90.45463763648394,452.3001331961194
115790,93.48209354389532,452.30403944052256
115791,94.57137520611344,452.3079456849257
115792,96.97694114441344,452.3118519293289
115793,103.87762400657627,452.31575817373204
115794,116.29910146322237,452.3196644181352
115795,132.37278730772655,452.3235706625383
115796,148.47266269209996,452.32747690694146
115797,161.28131216695428,452.3313831513446
115798,169.1641097103765,452.33528939574774
115799,171.95979877634724,452.33919564015093
115800,169.74347262572047,452.3431018845541
115801,161.9598987503655,452.3470081289572
115802,147.816612830676,452.35091437336035
115803,127.4856210389112,452.3548206177635
115804,102.77955728295288,452.35872686216663
115805,76.4001991394303,452.3626331065698
115806,50.223582579716634,452.36653935097297
115807,24.109526018433606,452.3704455953761
115808,-3.595433728976101,452.37435183977925
115809,-34.13859405144801,452.3782580841824
115810,-66.60498812421275,452.38216432858553
115811,-97.86871909787475,452.3860705729887
115812,-124.38961700447751,452.3899768173918
115813,-144.41466050843394,452.393883061795
115814,-158.7785332711228,452.39778930619815
115815,-169.6854278636806,452.4016955506013
115816,-178.56754801585396,452.40560179500443
115817,-184.85884409104307,452.40950803940757
115818,-186.6607964262354,452.4134142838107
115819,-182.6011626154458,452.41732052821385
115820,-173.19521744167406,452.42122677261705
115821,-160.5612130958571,452.4251330170202
115822,-146.86283268837497,452.4290392614233
115823,-132.93407295259453,452.43294550582647
115824,-118.23460111750863,452.4368517502296
115825,-101.96466486430676,452.44075799463275
115826,-84.13910609154712,452.4446642390359
115827,-65.6303150856449,452.4485704834391
115828,-47.33990725955437,452.4524767278422
115829,-29.541248615672963,452.45638297224536
115830,-12.163749879489195,452.4602892166485
115831,4.313825442544303,452.46419546105164
115832,18.446306041977767,452.4681017054548
115833,28.545076926980716,452.4720079498579
115834,34.007948392647315,452.4759141942611
115835,35.98453582915205,452.47982043866426
115836,36.63592719117343,452.4837266830674
115837,37.57641763676115,452.48763292747054
115838,38.89769354723781,452.4915391718737
115839,39.62934742728072,452.4954454162768
115840,39.089108004991246,452.49935166067996
115841,37.70830364677514,452.50325790508316
115842,36.47243449396936,452.5071641494863
115843,35.56974205668368,452.51107039388944
115844,33.73713751501072,452.5149766382926
115845,29.183920927252373,452.5188828826957
115846,21.392887034161696,452.52278912709886
115847,12.08882456728701,452.526695371502
115848,4.2818306280216785,452.53060161590514
115849,0.039637129406605354,452.53450786030834
115850,-1.1075677844867213,452.5384141047115
115851,-1.6918862093893132,452.5423203491146
115852,-4.13185256567327,452.54622659351776
115853,-8.733382925064383,452.5501328379209
115854,-13.572842087044183,452.55403908232404
115855,-16.28696579713747,452.5579453267272
115856,-16.151316881904368,452.5618515711304
115857,-14.68543396425924,452.5657578155335
115858,-14.416096834600214,452.56966405993666
115859,-17.00679433225588,452.5735703043398
115860,-22.308735216444163,452.57747654874294
115861,-28.84611082693061,452.5813827931461
115862,-34.952526574042466,452.5852890375492
115863,-39.462094412362774,452.5891952819524
115864,-41.655491026392454,452.59310152635555
115865,-41.06530230893628,452.5970077707587
115866,-37.74818092355311,452.60091401516183
115867,-32.7970722012536,452.604820259565
115868,-28.235876311661208,452.6087265039681
115869,-25.869727123036743,452.61263274837125
115870,-25.83628568739455,452.61653899277445
115871,-26.265818698796217,452.6204452371776
115872,-24.722693069042066,452.62435148158073
115873,-20.465790378940035,452.6282577259839
115874,-15.562565378502034,452.632163970387
115875,-13.626958457171543,452.63607021479015
115876,-16.947587722710594,452.6399764591933
115877,-24.29594517657266,452.6438827035965
115878,-31.330091067814184,452.64778894799963
115879,-33.46147389987463,452.65169519240277
115880,-29.04541858727646,452.6556014368059
115881,-20.479130984402723,452.65950768120905
115882,-12.442315421032607,452.6634139256122
115883,-8.688326055146002,452.66732017001533
115884,-9.75050008025325,452.6712264144185
115885,-13.046862695203377,452.67513265882167
115886,-15.015648237759091,452.6790389032248
115887,-13.576088934219353,452.68294514762795
115888,-9.252961509893696,452.6868513920311
115889,-4.45416561184264,452.6907576364342
115890,-1.6647238087534295,452.69466388083737
115891,-1.8705822743792588,452.69857012524056
115892,-4.1611827344832735,452.7024763696437
115893,-6.585152873165067,452.70638261404684
115894,-7.552343802070395,452.71028885845
115895,-6.821821073998605,452.7141951028531
115896,-5.478229911069029,452.71810134725627
115897,-5.013895574369384,452.7220075916594
115898,-6.228249852884888,452.7259138360626
115899,-8.726949499265494,452.72982008046574
115900,-11.30970690231678,452.7337263248689
115901,-12.863864729237084,452.737632569272
115902,-13.05635226644252,452.74153881367516
115903,-12.367767171335146,452.7454450580783
115904,-11.577074261525922,452.74935130248144
115905,-11.185734238587383,452.75325754688464
115906,-11.194037003514074,452.7571637912878
115907,-11.277960663515408,452.7610700356909
115908,-11.136939940706261,452.76497628009406
115909,-10.774851785841479,452.7688825244972
115910,-10.603615695387301,452.77278876890034
115911,-11.31911388401089,452.7766950133035
115912,-13.507619179061354,452.7806012577067
115913,-17.075489961497006,452.7845075021098
115914,-20.868968903881143,452.78841374651296
115915,-22.960258803062516,452.7923199909161
115916,-21.704158367184142,452.79622623531924
115917,-16.958864815161732,452.8001324797224
115918,-10.462057637356905,452.8040387241255
115919,-4.821170880279214,452.80794496852866
115920,-1.7091242301445289,452.81185121293186
115921,-0.6847519215967368,452.815757457335
115922,0.29633524621103935,452.81966370173814
115923,3.0057149739999867,452.8235699461413
115924,7.267039125824821,452.8274761905444
115925,10.956645062386205,452.83138243494756
115926,11.718359497292386,452.8352886793507
115927,8.913265564955092,452.8391949237539
115928,4.121326624732184,452.84310116815703
115929,-0.18233587907304832,452.8470074125602
115930,-2.5505242413126434,452.8509136569633
115931,-3.4289039806656456,452.85481990136645
115932,-4.3749831671016395,452.8587261457696
115933,-6.5306031795373425,452.86263239017273
115934,-9.754717686356393,452.86653863457593
115935,-12.994461357342127,452.8704448789791
115936,-15.257416419260036,452.8743511233822
115937,-16.16098414764583,452.87825736778535
115938,-15.723488194984151,452.8821636121885
115939,-13.947628978188071,452.88606985659163
115940,-10.846828491398973,452.8899761009948
115941,-6.856737667087046,452.89388234539797
115942,-2.9653602294422488,452.8977885898011
115943,-0.15759703737573777,452.90169483420425
115944,1.3641963880401402,452.9056010786074
115945,2.2846249022046297,452.90950732301053
115946,3.3156930358377448,452.91341356741367
115947,4.176558609891137,452.9173198118168
115948,3.5767610486828363,452.92122605622
115949,0.46212502486738216,452.92513230062315
115950,-4.563785686901437,452.9290385450263
115951,-9.109524402365217,452.9329447894294
115952,-10.525032223479183,452.93685103383257
115953,-7.884803853100667,452.9407572782357
115954,-2.728969846858872,452.94466352263885
115955,2.0171800523536207,452.94856976704204
115956,3.8797253128591,452.9524760114452
115957,1.7973978183464092,452.9563822558483
115958,-4.393118789270684,452.96028850025147
115959,-14.996759438076898,452.9641947446546
115960,-30.561645221934725,452.96810098905775
115961,-50.60103661495134,452.9720072334609
115962,-72.03448539386349,452.9759134778641
115963,-89.02439002106735,452.9798197222672
115964,-94.9436270706818,452.98372596667036
115965,-85.54326530083705,452.9876322110735
115966,-61.343393588902956,452.99153845547664
115967,-27.635390972179675,452.9954446998798
115968,7.99901290805339,452.9993509442829
115969,39.09954092075792,453.0032571886861
115970,62.4727391081929,453.00716343308926
115971,77.80478241096762,453.0110696774924
115972,85.4901921899391,453.01497592189554
115973,84.99043746877268,453.0188821662987
115974,75.5742489973537,453.0227884107018
115975,58.77496543392469,453.02669465510496
115976,39.526341461862025,453.03060089950816
115977,23.506032764866227,453.0345071439113
115978,12.064143189656251,453.03841338831444
115979,-0.22537326176513472,453.0423196327176
115980,-21.392708640760645,453.0462258771207
115981,-53.505832024238785,453.05013212152386
115982,-87.79710687947379,453.054038365927
115983,-110.07427300098698,453.05794461033014
115984,-113.52715073577485,453.06185085473334
115985,-107.02271558754853,453.0657570991365
115986,-108.79352924260562,453.0696633435396
115987,-128.94860362644056,453.07356958794276
115988,-157.32288451935247,453.0774758323459
115989,-171.12317144943177,453.08138207674904
115990,-158.3098776984263,453.0852883211522
115991,-134.3654181298806,453.0891945655554
115992,-132.2255154947922,453.0931008099585
115993,-169.83199904007023,453.09700705436165
115994,-224.98778070526006,453.1009132987648
115995,-245.88241951179847,453.10481954316793
115996,-193.9236512378049,453.1087257875711
115997,-81.11297408384719,453.1126320319742
115998,37.275728982130076,453.1165382763774
115999,115.13578339480549,453.12044452078055
116000,167.38331664452514,453.1243507651837
116001,267.6804473504908,453.12825700958683
116002,482.6427010234049,453.13216325399
116003,793.3982048581717,453.1360694983931
116004,1075.7908265450478,453.13997574279625
116005,1167.4410225303036,453.14388198719945
116006,977.1546193008714,453.1477882316026
116007,553.1591330498109,453.15169447600573
116008,56.964576850677204,453.15560072040887
116009,-335.99979310539425,453.159506964812
116010,-533.0856758693776,453.16341320921515
116011,-552.1171069984047,453.1673194536183
116012,-474.5583551889025,453.1712256980215
116013,-375.11008030333153,453.1751319424246
116014,-284.75654330882116,453.17903818682777
116015,-202.99144750511573,453.1829444312309
116016,-129.91312975388627,453.18685067563405
116017,-80.08494237219048,453.1907569200372
116018,-68.24725842336696,453.1946631644403
116019,-88.74331517194278,453.1985694088435
116020,-114.58566572492907,453.20247565324667
116021,-118.65721160311736,453.2063818976498
116022,-95.7389487453583,453.21028814205295
116023,-63.953530184325146,453.2141943864561
116024,-45.58679743535495,453.2181006308592
116025,-46.8816361434837,453.22200687526237
116026,-55.300188832406775,453.22591311966556
116027,-54.24377930876414,453.2298193640687
116028,-39.05927885492102,453.23372560847184
116029,-19.375139875487484,453.237631852875
116030,-7.83139864486632,453.2415380972781
116031,-7.896717297226752,453.24544434168126
116032,-12.195819368023205,453.2493505860844
116033,-11.069132510556713,453.2532568304876
116034,-1.709169495980422,453.25716307489074
116035,10.485610500534687,453.2610693192939
116036,17.962275912759804,453.264975563697
116037,17.534288115008245,453.26888180810016
116038,11.673446618758106,453.2727880525033
116039,4.976575718356186,453.27669429690644
116040,0.3136494347272337,453.28060054130964
116041,-2.044146258862217,453.2845067857128
116042,-2.900594560528421,453.2884130301159
116043,-2.795835663894672,453.29231927451906
116044,-2.114330564898675,453.2962255189222
116045,-1.6727821224878658,453.30013176332534
116046,-2.457751928113618,453.3040380077285
116047,-4.6872683417392516,453.3079442521317
116048,-7.51133087603744,453.3118504965348
116049,-9.954868142745223,453.31575674093796
116050,-12.102769723045729,453.3196629853411
116051,-15.082323595486093,453.32356922974424
116052,-19.721945939037624,453.3274754741474
116053,-25.32852405131796,453.3313817185505
116054,-29.99218129482078,453.33528796295366
116055,-32.18213364537069,453.33919420735685
116056,-31.96023687064844,453.34310045176
116057,-30.516561892928287,453.34700669616313
116058,-28.54149699418549,453.3509129405663
116059,-25.24326716056425,453.3548191849694
116060,-19.18929168360614,453.35872542937256
116061,-10.219402976868189,453.3626316737757
116062,-0.4430344996580655,453.3665379181789
116063,6.913101701051978,453.37044416258203
116064,10.003491268081017,453.3743504069852
116065,10.057826742461458,453.3782566513883
116066,10.742964880737953,453.38216289579145
116067,15.65143370071184,453.3860691401946
116068,25.900188693051753,453.38997538459773
116069,39.60207762293562,453.39388162900093
116070,53.36627516390253,453.39778787340407
116071,64.4930520438144,453.4016941178072
116072,72.32317253995778,453.40560036221035
116073,78.16269985619503,453.4095066066135
116074,84.27232976398504,453.41341285101663
116075,92.72838467708071,453.41731909541977
116076,104.59322352884826,453.42122533982297
116077,119.44873479498705,453.4251315842261
116078,135.3665493341408,453.42903782862925
116079,149.54604732699755,453.4329440730324
116080,159.62094466811962,453.4368503174355
116081,164.9847137414877,453.44075656183867
116082,167.06663460239045,453.4446628062418
116083,167.9870725507658,453.448569050645
116084,168.30711809358775,453.45247529504815
116085,165.62274113186055,453.4563815394513
116086,155.45396577550724,453.4602877838544
116087,134.20936422338553,453.46419402825757
116088,102.21119301565801,453.4681002726607
116089,64.4039265546409,453.47200651706385
116090,27.927317843635166,453.47591276146704
116091,-1.9101251825287722,453.4798190058702
116092,-24.44825341233908,453.4837252502733
116093,-43.34262179430316,453.48763149467646
116094,-63.47572302117446,453.4915377390796
116095,-87.4473770313513,453.49544398348274
116096,-114.04821278041321,453.4993502278859
116097,-139.41632369083226,453.5032564722891
116098,-159.59916946595658,453.5071627166922
116099,-172.54013200439226,453.51106896109536
116100,-178.40043607427233,453.5149752054985
116101,-178.59551450728048,453.51888144990164
116102,-174.67573723641408,453.5227876943048
116103,-167.80260626706308,453.5266939387079
116104,-158.73520857068337,453.5306001831111
116105,-147.8709964630633,453.53450642751426
116106,-135.2053161037298,453.5384126719174
116107,-120.49940301551804,453.54231891632054
116108,-103.83919243580901,453.5462251607237
116109,-86.20383065740893,453.5501314051268
116110,-69.36117260192722,453.55403764952996
116111,-54.89073617179442,453.55794389393316
116112,-43.04975939090484,453.5618501383363
116113,-32.58193672195544,453.56575638273944
116114,-21.855802036476913,453.5696626271426
116115,-10.449730975443167,453.5735688715457
116116,0.29037133916601454,453.57747511594886
116117,8.387732734694815,453.581381360352
116118,13.14841429556499,453.58528760475514
116119,16.061144486023256,453.58919384915833
116120,19.675841603409296,453.5931000935615
116121,25.29798803280385,453.5970063379646
116122,31.554443901305852,453.60091258236776
116123,35.26103833734017,453.6048188267709
116124,34.01473492144443,453.60872507117404
116125,28.338563566142486,453.6126313155772
116126,21.514482695376536,453.6165375599804
116127,17.21789262263355,453.6204438043835
116128,16.944261523518104,453.62435004878665
116129,19.307834331570938,453.6282562931898
116130,21.561896370917637,453.63216253759293
116131,21.77406718308675,453.6360687819961
116132,19.73827646575282,453.6399750263992
116133,16.139032733664493,453.6438812708024
116134,11.227964599896847,453.64778751520555
116135,4.611422737370352,453.6516937596087
116136,-3.604276162157256,453.65560000401183
116137,-11.693122139632749,453.65950624841497
116138,-16.79398870277444,453.6634124928181
116139,-17.03948121137303,453.66731873722125
116140,-13.556880534863495,453.67122498162445
116141,-10.321395624239527,453.6751312260276
116142,-11.568848352910539,453.6790374704307
116143,-18.681026230419047,453.68294371483387
116144,-29.09288549005561,453.686849959237
116145,-38.16269068125652,453.69075620364015
116146,-42.47357054469417,453.6946624480433
116147,-41.89241017523633,453.6985686924465
116148,-38.89605812971656,453.7024749368496
116149,-36.0761548017021,453.70638118125277
116150,-34.178509189713836,453.7102874256559
116151,-32.286320233236616,453.71419367005905
116152,-29.62292229546693,453.7180999144622
116153,-26.96412043655869,453.7220061588653
116154,-26.161497380878092,453.7259124032685
116155,-28.223479878646682,453.72981864767166
116156,-31.889010738261938,453.7337248920748
116157,-34.238592176793176,453.73763113647794
116158,-32.98357068053697,453.7415373808811
116159,-28.440768616689553,453.7454436252842
116160,-23.370353921506794,453.74934986968736
116161,-20.709085027076185,453.75325611409056
116162,-21.113454303429897,453.7571623584937
116163,-22.45083595551887,453.76106860289684
116164,-21.723140115471367,453.7649748473
116165,-17.80611166648967,453.7688810917031
116166,-12.651890879905256,453.77278733610626
116167,-9.866860363454938,453.7766935805094
116168,-11.773464379525617,453.7805998249126
116169,-17.351235299373343,453.78450606931574
116170,-22.763495343068954,453.7884123137189
116171,-24.09214528464063,453.792318558122
116172,-20.140747762197613,453.79622480252516
116173,-13.1499774476667,453.8001310469283
116174,-6.971592078497615,453.80403729133144
116175,-4.24449870563512,453.80794353573464
116176,-4.789195969560355,453.8118497801378
116177,-6.305934212790315,453.8157560245409
116178,-6.54926511723133,453.81966226894406
116179,-5.074389227844929,453.8235685133472
116180,-3.23533844389837,453.82747475775034
116181,-2.7282367919087993,453.8313810021535
116182,-4.142887322912809,453.8352872465567
116183,-6.741185972285374,453.8391934909598
116184,-9.389803420178344,453.84309973536296
116185,-11.530774527998375,453.8470059797661
116186,-13.237090969234083,453.85091222416924
116187,-14.500701950491084,453.8548184685724
116188,-14.754142588967774,453.8587247129755
116189,-13.343858990113945,453.86263095737866
116190,-10.554853180613147,453.86653720178185
116191,-8.019636684016291,453.870443446185
116192,-7.793749749766752,453.87434969058813
116193,-10.680938286326324,453.8782559349913
116194,-15.274026589978376,453.8821621793944
116195,-18.71192614944513,453.88606842379755
116196,-18.6891698979894,453.8899746682007
116197,-15.120498940295636,453.8938809126039
116198,-10.110891988492853,453.89778715700703
116199,-6.295665882154238,453.90169340141017
116200,-4.934714480371191,453.9055996458133
116201,-5.245177426750498,453.90950589021645
116202,-5.344873068356147,453.9134121346196
116203,-3.8929811039304107,453.91731837902273
116204,-1.1156395899888851,453.9212246234259
116205,1.4308322140667866,453.92513086782907
116206,1.9894886221756756,453.9290371122322
116207,-0.27365736637819593,453.93294335663535
116208,-4.837705024755442,453.9368496010385
116209,-10.191529607789477,453.94075584544163
116210,-14.653480880782979,453.94466208984477
116211,-17.1830534324514,453.94856833424797
116212,-17.812242771603437,453.9524745786511
116213,-17.49707971177958,453.95638082305425
116214,-17.441501195177295,453.9602870674574
116215,-18.25889623204506,453.9641933118605
116216,-19.523549536140848,453.96809955626367
116217,-20.081002617402117,453.9720058006668
116218,-18.945683210354606,453.97591204507
116219,-16.107200554886994,453.97981828947314
116220,-12.568486792079305,453.9837245338763
116221,-9.535252091307765,453.9876307782794
116222,-7.404193934342535,453.99153702268256
116223,-5.4176586527183,453.9954432670857
116224,-2.3333385312757082,453.99934951148884
116225,2.387085983950751,454.00325575589204
116226,7.827701752511372,454.0071620002952
116227,11.955323558588251,454.0110682446983
116228,12.868992957790223,454.01497448910146
116229,10.102039232810526,454.0188807335046
116230,5.0721719287268705,454.02278697790774
116231,0.3608788362088453,454.0266932223109
116232,-1.725422351192761,454.0305994667141
116233,-0.4140829532980336,454.0345057111172
116234,3.224871832021709,454.03841195552036
116235,7.088947300769673,454.0423181999235
116236,9.430186722566376,454.04622444432664
116237,9.88841924356286,454.0501306887298
116238,9.463328575522166,454.0540369331329
116239,9.47275011599343,454.0579431775361
116240,10.331849949780993,454.06184942193926
116241,11.170182443589301,454.0657556663424
116242,10.634505853354739,454.06966191074554
116243,8.177609688355776,454.0735681551487
116244,4.614215146891374,454.0774743995518
116245,1.2871450190973333,454.08138064395496
116246,-1.564632665785168,454.08528688835816
116247,-5.799109639092508,454.0891931327613
116248,-14.656392802072864,454.09309937716444
116249,-30.59036538809807,454.0970056215676
116250,-53.06359953904747,454.1009118659707
116251,-77.78270000351253,454.10481811037386
116252,-97.87406253114742,454.108724354777
116253,-106.36394730971793,454.11263059918014
116254,-98.79928400906206,454.11653684358333
116255,-74.97397803677052,454.1204430879865
116256,-39.12632489343113,454.1243493323896
116257,1.5262156291413145,454.12825557679275
116258,39.34679478660526,454.1321618211959
116259,68.65466252234356,454.13606806559903
116260,86.62727111343638,454.1399743100022
116261,92.57492509170186,454.14388055440537
116262,86.92032340515121,454.1477867988085
116263,71.392544392593,454.15169304321165
116264,50.167888989202226,454.1555992876148
116265,29.681751589427886,454.15950553201793
116266,15.34687779391447,454.16341177642107
116267,6.910329142642494,454.1673180208242
116268,-2.733152870667533,454.1712242652274
116269,-22.113612118316848,454.17513050963055
116270,-52.39512134859535,454.1790367540337
116271,-83.64310303316302,454.18294299843683
116272,-101.81134709595526,454.18684924283997
116273,-101.94963245381535,454.1907554872431
116274,-94.99843159887317,454.19466173164625
116275,-99.30268585871926,454.19856797604945
116276,-122.59136133434971,454.2024742204526
116277,-151.96408608654042,454.2063804648557
116278,-164.53319456992745,454.21028670925887
116279,-151.36777286953728,454.214192953662
116280,-131.06211514789345,454.21809919806515
116281,-135.42002094034098,454.2220054424683
116282,-176.41925568077596,454.2259116868715
116283,-225.96354248790965,454.2298179312746
116284,-232.89911848895338,454.23372417567776
116285,-167.1935669451865,454.2376304200809
116286,-50.64328110604151,454.24153666448404
116287,60.08741936083117,454.2454429088872
116288,129.10783949487373,454.2493491532903
116289,185.05013841672104,454.2532553976935
116290,304.994565373125,454.25716164209666
116291,541.6550322160032,454.2610678864998
116292,852.9332192280528,454.26497413090294
116293,1100.5523142569511,454.2688803753061
116294,1131.1469075216496,454.2727866197092
116295,882.6515966242708,454.27669286411236
116296,433.4859419749213,454.28059910851556
116297,-44.12677630563734,454.2845053529187
116298,-389.588575172472,454.28841159732184
116299,-538.2415896554879,454.292317841725
116300,-529.0979661655842,454.2962240861281
116301,-446.292207204526,454.30013033053126
116302,-352.58578616824866,454.3040365749344
116303,-265.8686344042321,454.3079428193376
116304,-181.79038492811566,454.31184906374074
116305,-105.64460694637606,454.3157553081439
116306,-58.338165102856635,454.319661552547
116307,-55.3989504933748,454.32356779695016
116308,-86.65128840238967,454.3274740413533
116309,-120.54748493772388,454.33138028575644
116310,-129.35393974374608,454.33528653015964
116311,-110.11964881750512,454.3391927745628
116312,-82.08396335883259,454.3430990189659
116313,-65.41969191338195,454.34700526336906
116314,-63.23862767533767,454.3509115077722
116315,-62.863232014344796,454.35481775217534
116316,-51.93499648050526,454.3587239965785
116317,-31.48971225140404,454.3626302409817
116318,-13.703447272239544,454.3665364853848
116319,-8.654440556443511,454.37044272978795
116320,-14.554265826192278,454.3743489741911
116321,-20.59487911377131,454.37825521859423
116322,-18.109966742144543,454.3821614629974
116323,-8.29880502577491,454.3860677074005
116324,0.3527343348475823,454.38997395180365
116325,1.0678676469059574,454.39388019620685
116326,-5.160374732530247,454.39778644061
116327,-11.58215931803435,454.40169268501313
116328,-12.559461106102976,454.40559892941627
116329,-8.147867294838052,454.4095051738194
116330,-2.687413984823454,454.41341141822255
116331,0.05035540406215666,454.4173176626257
116332,-0.05460257053638734,454.4212239070289
116333,-0.6157851868213263,454.42513015143203
116334,-0.03258010727786487,454.42903639583517
116335,0.8170132630344717,454.4329426402383
116336,-0.04016890806124873,454.43684888464145
116337,-3.071731336819921,454.4407551290446
116338,-6.300684855908795,454.44466137344773
116339,-6.988842754156263,454.4485676178509
116340,-4.269420220247962,454.45247386225407
116341,-0.23576749922019713,454.4563801066572
116342,1.504566686406991,454.46028635106035
116343,-1.4241586025165884,454.4641925954635
116344,-8.34309281440385,454.4680988398666
116345,-15.959368394452708,454.47200508426977
116346,-20.596479791026788,454.47591132867296
116347,-20.487961591814834,454.4798175730761
116348,-16.550092751122605,454.48372381747924
116349,-11.295538016133435,454.4876300618824
116350,-6.879973096919805,454.4915363062855
116351,-3.745121937135341,454.49544255068867
116352,-0.7004942396660825,454.4993487950918
116353,3.860504039463958,454.503255039495
116354,10.685432131660844,454.50716128389814
116355,19.25822240320722,454.5110675283013
116356,28.354779368347522,454.5149737727044
116357,36.8841308096756,454.51888001710756
116358,44.2892989953509,454.5227862615107
116359,50.39199647858215,454.52669250591384
116360,55.17206489069887,454.53059875031704
116361,58.95371361685976,454.5345049947202
116362,62.86068212000038,454.5384112391233
116363,68.86968927230106,454.54231748352646
116364,78.97419198364257,454.5462237279296
116365,93.80697267117789,454.55012997233274
116366,111.78929870046122,454.5540362167359
116367,129.7006126881417,454.5579424611391
116368,144.48889899072236,454.5618487055422
116369,155.03171776720194,454.56575494994536
116370,162.42511563443128,454.5696611943485
116371,168.46309192079678,454.57356743875164
116372,173.4517812114168,454.5774736831548
116373,175.14245354301715,454.5813799275579
116374,169.76778738508023,454.5852861719611
116375,154.51897066957213,454.58919241636426
116376,129.63251067875174,454.5930986607674
116377,98.52538303414806,454.59700490517054
116378,65.90982752833672,454.6009111495737
116379,35.31977198124205,454.6048173939768
116380,7.795970618636599,454.60872363837996
116381,-17.57564123831843,454.61262988278315
116382,-42.05236764138101,454.6165361271863
116383,-65.99597331100426,454.62044237158943
116384,-88.84886777159156,454.6243486159926
116385,-109.94837152647878,454.6282548603957
116386,-129.10196970997225,454.63216110479885
116387,-146.25216210458603,454.636067349202
116388,-160.61521400483457,454.63997359360513
116389,-170.34341507736104,454.64387983800833
116390,-173.37666234960128,454.64778608241147
116391,-169.03744645038913,454.6516923268146
116392,-159.0877479882417,454.65559857121775
116393,-147.19712187847566,454.6595048156209
116394,-136.9469399361013,454.66341106002403
116395,-129.68286484482553,454.6673173044272
116396,-123.75897376875727,454.67122354883037
116397,-115.77656358343151,454.6751297932335
116398,-103.00141503527543,454.67903603763665
116399,-85.29733089385937,454.6829422820398
116400,-65.25748120691095,454.68684852644293
116401,-46.49368419553075,454.69075477084607
116402,-31.337081579288643,454.6946610152492
116403,-19.58918632555363,454.6985672596524
116404,-9.167151414478948,454.70247350405555
116405,1.9147582550668552,454.7063797484587
116406,13.766633503498893,454.7102859928618
116407,24.407223256127033,454.71419223726497
116408,31.251805988501353,454.7180984816681
116409,33.11790713413015,454.72200472607125
116410,31.17720332516503,454.72591097047444
116411,28.150863385696873,454.7298172148776
116412,26.456368393363277,454.7337234592807
116413,26.793237990587066,454.73762970368387
116414,28.171111685770875,454.741535948087
116415,29.1081945178615,454.74544219249015
116416,28.81574762820624,454.7493484368933
116417,27.41471052543649,454.7532546812965
116418,25.290548208935466,454.7571609256996
116419,22.498159752540545,454.76106717010276
116420,18.902750112301035,454.7649734145059
116421,14.786882030051267,454.76887965890904
116422,11.035875386395267,454.7727859033122
116423,8.447375598523015,454.7766921477153
116424,6.772693874189733,454.7805983921185
116425,4.616059351882145,454.78450463652166
116426,0.6018984228413092,454.7884108809248
116427,-5.12963508410669,454.79231712532794
116428,-10.63057406404528,454.7962233697311
116429,-13.643439199089613,454.8001296141342
116430,-13.73781555563631,454.80403585853736
116431,-13.076928517160017,454.80794210294056
116432,-14.829455276995786,454.8118483473437
116433,-20.374495371724297,454.81575459174684
116434,-27.739642479950426,454.81966083615
116435,-32.83944058285505,454.8235670805531
116436,-32.67772550335498,454.82747332495626
116437,-27.86246554745403,454.8313795693594
116438,-22.249019747272104,454.8352858137626
116439,-19.946736977177558,454.83919205816574
116440,-22.18242119848437,454.8430983025689
116441,-26.611601693934723,454.847004546972
116442,-29.530936656957955,454.85091079137516
116443,-28.98332667705801,454.8548170357783
116444,-26.11717601954829,454.85872328018144
116445,-23.83015328364883,454.86262952458463
116446,-24.116506812664085,454.8665357689878
116447,-26.511865188864732,454.8704420133909
116448,-28.83553404383218,454.87434825779405
116449,-29.290633596490952,454.8782545021972
116450,-27.881722993415888,454.88216074660033
116451,-25.953782078296097,454.8860669910035
116452,-24.519353626152174,454.88997323540667
116453,-23.128725688815884,454.8938794798098
116454,-20.395396626346347,454.89778572421295
116455,-15.627163890080784,454.9016919686161
116456,-9.948430763647938,454.90559821301923
116457,-5.796370976891181,454.9095044574224
116458,-5.189392518592491,454.9134107018255
116459,-8.25235229237677,454.91731694622865
116460,-13.187519629090426,454.92122319063185
116461,-17.58397897958638,454.925129435035
116462,-19.90487516817072,454.92903567943813
116463,-20.060164113469547,454.93294192384127
116464,-18.919410584441604,454.9368481682444
116465,-17.45981191926909,454.94075441264755
116466,-16.279029802656172,454.9446606570507
116467,-15.61747748731814,454.9485669014539
116468,-15.549863363454229,454.952473145857
116469,-16.050341353225626,454.95637939026017
116470,-16.97248676510503,454.9602856346633
116471,-18.11349191169863,454.96419187906645
116472,-19.327255261335807,454.9680981234696
116473,-20.47513409039805,454.9720043678727
116474,-21.188020244573938,454.9759106122759
116475,-20.775249283746223,454.97981685667907
116476,-18.630717466116728,454.9837231010822
116477,-14.963179167468226,454.98762934548535
116478,-11.11831458045975,454.9915355898885
116479,-8.890494955152153,454.9954418342916
116480,-9.129631908060292,454.99934807869477
116481,-10.811401353369867,455.00325432309796
116482,-11.5808764089654,455.0071605675011
116483,-9.542445994635312,455.01106681190424
116484,-4.8430510590515965,455.0149730563074
116485,0.3741689525224514,455.0188793007105
116486,3.6704236523861433,455.02278554511366
116487,4.178356383219474,455.0266917895168
116488,2.9830619575589106,455.03059803392
116489,1.75706748550055,455.03450427832314
116490,1.0290587140035647,455.0384105227263
116491,-0.22997498624421303,455.0423167671294
116492,-3.346180083531753,455.04622301153256
116493,-8.307452023441282,455.0501292559357
116494,-13.417944350167355,455.05403550033884
116495,-16.635745933022584,455.05794174474204
116496,-17.337735429532493,455.0618479891452
116497,-16.837385891613152,455.0657542335483
116498,-17.17439883740336,455.06966047795146
116499,-19.313792331874474,455.0735667223546
116500,-22.382819399158823,455.07747296675774
116501,-24.529157115943363,455.0813792111609
116502,-24.47773313839734,455.0852854555641
116503,-22.340887130932252,455.0891916999672
116504,-19.10329206390061,455.09309794437036
116505,-15.511100102311824,455.0970041887735
116506,-11.552933142660862,455.10091043317664
116507,-6.9676103916145795,455.1048166775798
116508,-2.097301813464985,455.1087229219829
116509,1.9340422292304469,455.1126291663861
116510,4.00032810160071,455.11653541078925
116511,3.966265805643015,455.1204416551924
116512,2.869832276707637,455.12434789959553
116513,2.015516107065317,455.1282541439987
116514,1.7491867403828487,455.1321603884018
116515,1.0466879322593496,455.13606663280495
116516,-1.6192451442434144,455.13997287720815
116517,-6.7773928826427605,455.1438791216113
116518,-13.060890176844607,455.14778536601443
116519,-17.73921435666272,455.1516916104176
116520,-18.413112484011553,455.1555978548207
116521,-14.685903632415302,455.15950409922385
116522,-8.570612348146483,455.163410343627
116523,-3.257209527065462,455.16731658803013
116524,-1.041867273381378,455.17122283243333
116525,-1.8647003081889788,455.17512907683647
116526,-3.509867192204814,455.1790353212396
116527,-3.321182981396502,455.18294156564275
116528,-0.14825487396221626,455.1868478100459
116529,4.931901794727373,455.19075405444903
116530,9.579063790053311,455.19466029885217
116531,11.919144164210241,455.19856654325537
116532,11.522380634047067,455.2024727876585
116533,8.856275449076918,455.20637903206165
116534,3.8842679410003917,455.2102852764648
116535,-4.681933153162021,455.2141915208679
116536,-18.528149661707825,455.21809776527107
116537,-37.79671458285113,455.2220040096742
116538,-59.620193611647416,455.2259102540774
116539,-78.41450148989347,455.22981649848055
116540,-87.9265425012334,455.2337227428837
116541,-83.85284525882028,455.2376289872868
116542,-65.61347740001202,455.24153523168997
116543,-36.499237693356605,455.2454414760931
116544,-2.282368974975424,455.24934772049625
116545,30.96195339354901,455.25325396489944
116546,58.74036693148805,455.2571602093026
116547,78.76144811457317,455.2610664537057
116548,90.10364299383541,455.26497269810886
116549,91.95548758945256,455.268878942512
116550,83.52938642195977,455.27278518691514
116551,65.66835226509431,455.2766914313183
116552,42.47470028427036,455.2805976757215
116553,20.308567805938544,455.2845039201246
116554,3.597795256009784,455.28841016452776
116555,-9.231036239891424,455.2923164089309
116556,-24.928248226823197,455.29622265333404
116557,-48.747268351079285,455.3001288977372
116558,-77.45826202379811,455.3040351421403
116559,-99.8813470245278,455.3079413865435
116560,-106.66834703143589,455.31184763094666
116561,-101.01576350698527,455.3157538753498
116562,-98.50991754014609,455.31966011975294
116563,-113.32652314498534,455.3235663641561
116564,-142.6472141648481,455.3274726085592
116565,-166.2157841596153,455.33137885296236
116566,-165.23945889613617,455.33528509736556
116567,-144.24350483764312,455.3391913417687
116568,-132.14698300617573,455.34309758617184
116569,-156.0058699734435,455.347003830575
116570,-209.2369788796638,455.3509100749781
116571,-247.20658959096312,455.35481631938126
116572,-221.1977147997054,455.3587225637844
116573,-123.60846563843674,455.3626288081876
116574,0.023736261525348912,455.36653505259073
116575,90.90852142783204,455.3704412969939
116576,137.73807307683435,455.374347541397
116577,199.9867609604216,455.37825378580015
116578,361.92051862095326,455.3821600302033
116579,647.5598976670266,455.38606627460643
116580,969.3168630521263,455.38997251900963
116581,1163.2104999838284,455.3938787634128
116582,1093.5789126333125,455.3977850078159
116583,749.5629670200858,455.40169125221905
116584,258.4794665408734,455.4055974966222
116585,-193.5214339841961,455.40950374102533
116586,-471.3730262342198,455.4134099854285
116587,-551.5539838376898,455.4173162298316
116588,-500.17425214503703,455.4212224742348
116589,-402.6683949305898,455.42512871863795
116590,-308.1114151845368,455.4290349630411
116591,-223.96744541912545,455.43294120744423
116592,-146.3484288372478,455.43684745184737
116593,-84.8206362062523,455.4407536962505
116594,-57.69740214148585,455.44465994065365
116595,-69.62263581918292,455.44856618505685
116596,-100.4545758791914,455.45247242946
116597,-119.24948263292177,455.4563786738631
116598,-109.3590529224118,455.46028491826627
116599,-79.81518411137279,455.4641911626694
116600,-53.291796597216035,455.46809740707255
116601,-44.21108326478983,455.4720036514757
116602,-48.21710192322073,455.4759098958789
116603,-50.655367979796154,455.479816140282
116604,-42.71504116881822,455.48372238468517
116605,-28.56782662865723,455.4876286290883
116606,-18.351059570542198,455.49153487349145
116607,-16.500172306790944,455.4954411178946
116608,-17.937001816696565,455.4993473622977
116609,-14.774721601184703,455.5032536067009
116610,-5.177614278815616,455.50715985110406
116611,5.031711957292789,455.5110660955072
116612,8.85350875896242,455.51497233991034
116613,5.223323195802532,455.5188785843135
116614,-0.4621463521131659,455.5227848287166
116615,-2.2157899032079484,455.52669107311976
116616,0.751210351287525,455.53059731752296
116617,3.9256720355952504,455.5345035619261
116618,2.4658243560234583,455.53840980632924
116619,-4.1309535676008275,455.5423160507324
116620,-12.001998249730958,455.5462222951355
116621,-16.876737780936228,455.55012853953866
116622,-17.7615294190594,455.5540347839418
116623,-17.04186935380456,455.557941028345
116624,-17.53322807769418,455.56184727274814
116625,-19.700409161012324,455.5657535171513
116626,-21.55545374884693,455.5696597615544
116627,-20.906668967666743,455.57356600595756
116628,-17.59367543070725,455.5774722503607
116629,-13.728467499186793,455.58137849476384
116630,-11.956902522350646,455.58528473916704
116631,-13.373687002622587,455.5891909835702
116632,-16.75092562988971,455.5930972279733
116633,-19.501864563796246,455.59700347237646
116634,-19.486451550727153,455.6009097167796
116635,-16.30857409261415,455.60481596118274
116636,-11.282839756651985,455.6087222055859
116637,-6.243870064922754,455.6126284499891
116638,-2.1387484870857203,455.6165346943922
116639,1.5831986045341782,455.62044093879535
116640,6.400698900941643,455.6243471831985
116641,13.46850794843649,455.62825342760163
116642,22.663566348129386,455.6321596720048
116643,32.630933658994806,455.6360659164079
116644,41.72556460260094,455.6399721608111
116645,49.07952325736582,455.64387840521425
116646,55.025149746445734,455.6477846496174
116647,60.70422397111537,455.65169089402053
116648,67.31926807341722,455.6555971384237
116649,75.6154769317505,455.6595033828268
116650,85.81467044610397,455.66340962722995
116651,97.7945651978445,455.66731587163315
116652,111.21431549876547,455.6712221160363
116653,125.51215132033133,455.67512836043943
116654,139.91029057131254,455.67903460484257
116655,153.51960523616805,455.6829408492457
116656,165.4485674394092,455.68684709364885
116657,174.76998423142973,455.690753338052
116658,180.3835968150148,455.69465958245513
116659,181.01869213836156,455.6985658268583
116660,175.56749343173863,455.70247207126147
116661,163.62016710997034,455.7063783156646
116662,145.79640148978115,455.71028456006775
116663,123.55072121799006,455.7141908044709
116664,98.54149540470249,455.71809704887403
116665,72.02469847921925,455.72200329327717
116666,44.703712106388664,455.72590953768037
116667,17.049640991133103,455.7298157820835
116668,-10.310133786279984,455.73372202648665
116669,-36.56297199205009,455.7376282708898
116670,-61.08297082470964,455.7415345152929
116671,-83.81605638033659,455.74544075969607
116672,-105.22617324636774,455.7493470040992
116673,-125.71911820257864,455.7532532485024
116674,-144.9355519959758,455.75715949290554
116675,-161.47142754929277,455.7610657373087
116676,-173.3039221260646,455.7649719817118
116677,-178.7094052310102,455.76887822611496
116678,-177.1346960643893,455.7727844705181
116679,-169.5309010588178,455.77669071492124
116680,-157.9940072126722,455.78059695932444
116681,-144.929995582521,455.7845032037276
116682,-132.1721752945097,455.7884094481307
116683,-120.46463593145343,455.79231569253386
116684,-109.52722125218109,455.796221936937
116685,-98.61532230252442,455.80012818134014
116686,-87.20709942059004,455.8040344257433
116687,-75.36162899572093,455.8079406701465
116688,-63.51186898706948,455.8118469145496
116689,-51.896571448566945,455.81575315895276
116690,-40.1741825524239,455.8196594033559
116691,-27.6696140022404,455.82356564775904
116692,-14.170415509614001,455.8274718921622
116693,-0.6233358277471911,455.8313781365653
116694,10.984590303431169,455.8352843809685
116695,18.687769260032802,455.83919062537166
116696,21.864065054930247,455.8430968697748
116697,21.805087712078976,455.84700311417794
116698,21.018846556981927,455.8509093585811
116699,21.708767489877868,455.8548156029842
116700,24.50855601732235,455.85872184738736
116701,28.335364745573585,455.86262809179055
116702,31.35273126259151,455.8665343361937
116703,32.24599581267544,455.87044058059683
116704,30.920067848767893,455.874346825
116705,28.307456674552036,455.8782530694031
116706,25.652209759983748,455.88215931380626
116707,23.86137156081402,455.8860655582094
116708,23.233778720519652,455.8899718026126
116709,23.481674479248888,455.89387804701573
116710,23.843153447377297,455.8977842914189
116711,23.2511295194467,455.901690535822
116712,20.668941558417742,455.90559678022515
116713,15.587018208888008,455.9095030246283
116714,8.409024237996856,455.91340926903143
116715,0.37220515329169734,455.91731551343463
116716,-7.073327950094397,455.92122175783777
116717,-13.05486844843368,455.9251280022409
116718,-17.662732286869588,455.92903424664405
116719,-21.630396822897044,455.9329404910472
116720,-25.566820993552888,455.93684673545033
116721,-29.375750907767873,455.94075297985347
116722,-32.35266143845847,455.9446592242566
116723,-33.877553256876766,455.9485654686598
116724,-34.088372620680474,455.95247171306295
116725,-33.89038571272703,455.9563779574661
116726,-34.200451977221334,455.96028420186923
116727,-35.02501637457402,455.96419044627237
116728,-35.226751598431434,455.9680966906755
116729,-33.35430835461678,455.97200293507865
116730,-29.002950137423333,455.97590917948185
116731,-23.57958410201736,455.979815423885
116732,-19.65339264095249,455.9837216682881
116733,-19.17017675063262,455.98762791269127
116734,-21.85436445366627,455.9915341570944
116735,-25.17735262135827,455.99544040149755
116736,-26.12962420563975,455.9993466459007
116737,-23.53192922779798,456.0032528903039
116738,-19.032158524497966,456.007159134707
116739,-15.877466647304441,456.01106537911016
116740,-16.349587586244127,456.0149716235133
116741,-19.90888303874121,456.01887786791644
116742,-23.567420469167402,456.0227841123196
116743,-24.187065597479695,456.0266903567227
116744,-20.818665644195164,456.0305966011259
116745,-15.228507476371252,456.03450284552906
116746,-10.35146868463972,456.0384090899322
116747,-8.134727400674894,456.04231533433534
116748,-8.573637112680258,456.0462215787385
116749,-10.476213416600498,456.0501278231416
116750,-12.88189249734155,456.05403406754476
116751,-15.624657939811996,456.05794031194796
116752,-18.609466197969155,456.0618465563511
116753,-20.825251742843278,456.06575280075424
116754,-20.46107297076348,456.0696590451574
116755,-16.355726845602454,456.0735652895605
116756,-9.514024581046572,456.07747153396366
116757,-3.0859050593747757,456.0813777783668
116758,-0.45755248428976836,456.08528402277
116759,-2.835557016593575,456.08919026717314
116760,-8.2971697008268,456.0930965115763
116761,-13.137361357341149,456.0970027559794
116762,-14.460706577035033,456.10090900038256
116763,-12.00032944936844,456.1048152447857
116764,-7.895894247528966,456.10872148918884
116765,-4.881271242221947,456.11262773359203
116766,-4.48416217103092,456.1165339779952
116767,-6.523119174736452,456.1204402223983
116768,-9.88071330367769,456.12434646680146
116769,-13.518933602759798,456.1282527112046
116770,-16.818545828313873,456.13215895560774
116771,-19.245903334064295,456.1360652000109
116772,-20.052586268123406,456.1399714444141
116773,-18.536736494825433,456.1438776888172
116774,-14.648262010030539,456.14778393322035
116775,-9.263914319141913,456.1516901776235
116776,-3.7737647121953506,456.15559642202663
116777,0.662454637017124,456.1595026664298
116778,3.4995965628265324,456.1634089108329
116779,4.55155294779105,456.1673151552361
116780,3.5206085490275134,456.17122139963925
116781,-0.025535471684996924,456.1751276440424
116782,-6.066899105148233,456.17903388844553
116783,-13.500704083410495,456.18294013284867
116784,-20.22249508366331,456.1868463772518
116785,-24.091376751829923,456.19075262165495
116786,-24.143007485003103,456.19465886605815
116787,-21.15221907333273,456.1985651104613
116788,-17.164514778851235,456.20247135486443
116789,-14.397667303065775,456.20637759926757
116790,-14.252747245251228,456.2102838436707
116791,-16.87341579307622,456.21419008807385
116792,-21.200102511294382,456.218096332477
116793,-25.311598593727204,456.22200257688013
116794,-27.041674205237747,456.2259088212833
116795,-24.932868557153306,456.22981506568647
116796,-19.22919449367634,456.2337213100896
116797,-12.152297286774807,456.23762755449275
116798,-6.851578597971979,456.2415337988959
116799,-5.385466226654282,456.245440043299
116800,-7.143319285281297,456.24934628770217
116801,-9.134607404036785,456.25325253210536
116802,-8.215550657188395,456.2571587765085
116803,-3.612195203679003,456.26106502091164
116804,2.3724176466407414,456.2649712653148
116805,6.172043655510539,456.2688775097179
116806,5.818172663813997,456.27278375412106
116807,2.396410270491999,456.2766899985242
116808,-1.1393689597291683,456.2805962429274
116809,-2.6584122854918935,456.28450248733054
116810,-2.560398850149826,456.2884087317337
116811,-2.959342475196784,456.2923149761368
116812,-5.184717657295447,456.29622122053996
116813,-8.019818596900205,456.3001274649431
116814,-8.407049255884951,456.30403370934624
116815,-4.067959261511836,456.30793995374944
116816,4.247312671009301,456.3118461981526
116817,12.800633531434938,456.3157524425557
116818,17.09760994027265,456.31965868695886
116819,14.44044020696841,456.323564931362
116820,4.915712200271141,456.32747117576514
116821,-9.527559035665956,456.3313774201683
116822,-26.674629510731023,456.3352836645715
116823,-44.79879277703693,456.3391899089746
116824,-62.1054577459404,456.34309615337776
116825,-75.71329994236565,456.3470023977809
116826,-81.48058368524934,456.35090864218404
116827,-75.30361804153108,456.3548148865872
116828,-55.28798859939647,456.3587211309903
116829,-23.366222596859117,456.3626273753935
116830,14.84856327313958,456.36653361979666
116831,52.013653145430624,456.3704398641998
116832,81.58370797870961,456.37434610860294
116833,99.3918989456356,456.3782523530061
116834,103.7897622293666,456.3821585974092
116835,95.24183640913311,456.38606484181236
116836,76.47827953079047,456.38997108621555
116837,52.88446962434088,456.3938773306187
116838,31.350199560615348,456.39778357502183
116839,16.58253251911777,456.401689819425
116840,7.012608150113426,456.4055960638281
116841,-5.273070631390595,456.40950230823125
116842,-28.323609002064686,456.4134085526344
116843,-61.750821903074765,456.4173147970376
116844,-94.0757409857301,456.42122104144073
116845,-110.85528303431369,456.42512728584387
116846,-108.28801574028263,456.429033530247
116847,-99.42659043279758,456.43293977465015
116848,-104.50240274550777,456.4368460190533
116849,-131.76053212781792,456.44075226345643
116850,-166.94671389724056,456.44465850785963
116851,-184.47098414372954,456.44856475226277
116852,-172.87011529359563,456.4524709966659
116853,-150.23255899494177,456.45637724106905
116854,-150.8312850878105,456.4602834854722
116855,-191.00212748448823,456.46418972987533
116856,-245.87867595058935,456.46809597427847
116857,-263.30614185010336,456.4720022186816
116858,-207.44389604950268,456.4759084630848
116859,-92.68785095995875,456.47981470748795
116860,27.929334559316015,456.4837209518911
116861,114.76177053044066,456.4876271962942
116862,186.7094927500329,456.49153344069737
116863,311.3617208523579,456.4954396851005
116864,539.1049779498247,456.49934592950365
116865,835.1534422846792,456.50325217390684
116866,1074.003541878552,456.50715841831
116867,1112.3253439314005,456.5110646627131
116868,888.7645004121855,456.51497090711626
116869,472.58539642441906,456.5188771515194
116870,22.530744125772372,456.52278339592254
116871,-311.0755874989291,456.5266896403257
116872,-466.0340638447565,456.5305958847289
116873,-476.5094506259374,456.534502129132
116874,-418.55298197716013,456.53840837353516
116875,-347.81666973517645,456.5423146179383
116876,-278.00096609556135,456.54622086234144
116877,-203.19884103442746,456.5501271067446
116878,-128.84693140694998,456.5540333511477
116879,-77.33195550486508,456.5579395955509
116880,-67.00306536430884,456.56184583995406
116881,-91.24416285995663,456.5657520843572
116882,-121.27627873366436,456.56965832876034
116883,-129.85017954866547,456.5735645731635
116884,-112.1377156179255,456.5774708175666
116885,-84.8035185902304,456.58137706196976
116886,-66.86972710469192,456.58528330637296
116887,-62.45397672782412,456.5891895507761
116888,-60.71180438619456,456.59309579517924
116889,-49.81232235989261,456.5970020395824
116890,-29.19821514163294,456.6009082839855
116891,-8.8087199191101,456.60481452838866
116892,1.62918987385346,456.6087207727918
116893,1.245209405324718,456.612627017195
116894,-3.145186495738251,456.61653326159814
116895,-4.864243545702081,456.6204395060013
116896,-2.9584848724419617,456.6243457504044
116897,-0.7651538100498019,456.62825199480756
116898,-0.6828881216634555,456.6321582392107
116899,-1.5163374136631482,456.63606448361384
116900,-0.7502640189838462,456.63997072801703
116901,1.6653881945844247,456.6438769724202
116902,2.6592880988084637,456.6477832168233
116903,-0.7870097607134474,456.65168946122645
116904,-8.193759738020416,456.6555957056296
116905,-15.522764217715071,456.65950195003273
116906,-18.493465633501316,456.6634081944359
116907,-15.997619370720681,456.66731443883907
116908,-10.617428083369889,456.6712206832422
116909,-6.267164785650667,456.67512692764535
116910,-5.418275288846713,456.6790331720485
116911,-8.110641759645496,456.68293941645163
116912,-12.861173878259272,456.6868456608548
116913,-18.021871417266894,456.6907519052579
116914,-22.370131959727274,456.6946581496611
116915,-24.96033195699848,456.69856439406425
116916,-25.00627222557893,456.7024706384674
116917,-22.213012148735565,456.70637688287053
116918,-17.203559018930676,456.71028312727367
116919,-11.41719746672856,456.7141893716768
116920,-6.310014887285678,456.71809561607995
116921,-2.3572483967966775,456.72200186048315
116922,1.3554951850054247,456.7259081048863
116923,6.475259519215282,456.7298143492894
116924,13.91012210402807,456.73372059369257
116925,22.522585078387227,456.7376268380957
116926,29.16668171098773,456.74153308249885
116927,30.53363343722304,456.745439326902
116928,25.86364974870196,456.7493455713051
116929,18.488471612206723,456.7532518157083
116930,14.554179010887978,456.75715806011146
116931,19.27869715853362,456.7610643045146
116932,33.29557779172303,456.76497054891774
116933,52.00946263687846,456.7688767933209
116934,68.73925712947526,456.772783037724
116935,79.34813312678091,456.77668928212717
116936,84.75066709117414,456.78059552653036
116937,89.45110678151914,456.7845017709335
116938,97.61880826017605,456.78840801533664
116939,110.12904068117649,456.7923142597398
116940,124.78177909214457,456.7962205041429
116941,138.82957777663609,456.80012674854606
116942,151.00513223338652,456.8040329929492
116943,161.21053971904422,456.8079392373524
116944,168.72379538541756,456.81184548175554
116945,171.3299728836104,456.8157517261587
116946,166.63022257645798,456.8196579705618
116947,154.24531290063203,456.82356421496496
116948,136.48475818303004,456.8274704593681
116949,116.56792283904346,456.83137670377124
116950,96.07072287750933,456.83528294817444
116951,74.15777140955979,456.8391891925776
116952,49.34183409879153,456.8430954369807
116953,21.861542171780542,456.84700168138386
116954,-5.907199382364642,456.850907925787
116955,-31.516261330503404,456.85481417019014
116956,-54.80401517629245,456.8587204145933
116957,-77.9066754390777,456.8626266589965
116958,-102.64120831520088,456.8665329033996
116959,-127.79189363520806,456.87043914780276
116960,-149.17065666759933,456.8743453922059
116961,-162.71053924435688,456.87825163660904
116962,-167.82337611454312,456.8821578810122
116963,-167.83521874430468,456.8860641254153
116964,-166.99523604375005,456.8899703698185
116965,-166.77474195305848,456.89387661422165
116966,-164.83598160721635,456.8977828586248
116967,-157.53917955508854,456.90168910302793
116968,-143.5867405284835,456.9055953474311
116969,-125.44434672134467,456.9095015918342
116970,-107.33230629703658,456.91340783623735
116971,-91.7343680606105,456.91731408064055
116972,-77.60839027158745,456.9212203250437
116973,-61.80693320233601,456.92512656944683
116974,-42.31558277720543,456.92903281385
116975,-20.434433820425042,456.9329390582531
116976,-0.1271470987764456,456.93684530265625
116977,14.741869494153832,456.9407515470594
116978,22.91577487214718,456.9446577914626
116979,26.102023442595414,456.94856403586573
116980,27.213813541892566,456.95247028026887
116981,28.172396862952475,456.956376524672
116982,29.02594972076813,456.96028276907515
116983,28.821796949850505,456.9641890134783
116984,27.18778791560824,456.96809525788143
116985,25.119970704837954,456.9720015022846
116986,24.279972062416697,456.97590774668777
116987,25.427114095210676,456.9798139910909
116988,27.374363749340965,456.98372023549405
116989,27.47806456851926,456.9876264798972
116990,23.450640122525243,456.9915327243003
116991,15.173276038827224,456.99543896870347
116992,5.0751823294489755,456.9993452131066
116993,-3.3187776550870156,457.0032514575098
116994,-7.658962240073216,457.00715770191294
116995,-8.18331644875831,457.0110639463161
116996,-7.250039481814699,457.0149701907192
116997,-7.444125892944445,457.01887643512237
116998,-9.798814838369378,457.0227826795255
116999,-13.4716777546009,457.02668892392865
117000,-16.92372394711196,457.03059516833184
117001,-19.40738631528414,457.034501412735
117002,-21.444405058632576,457.0384076571381
117003,-24.011087766245453,457.04231390154126
117004,-27.347407075631075,457.0462201459444
117005,-30.57113677858495,457.05012639034754
117006,-32.42665428961891,457.0540326347507
117007,-32.395627651497875,457.0579388791539
117008,-31.098146235774855,457.061845123557
117009,-29.65524971222647,457.06575136796016
117010,-28.69605740761174,457.0696576123633
117011,-27.981040681945018,457.07356385676644
117012,-26.932799149438676,457.0774701011696
117013,-25.434320594069565,457.0813763455727
117014,-24.01463077853069,457.0852825899759
117015,-23.219458564013337,457.08918883437906
117016,-22.856076507369906,457.0930950787822
117017,-21.983701692073943,457.09700132318534
117018,-19.782726329922394,457.1009075675885
117019,-16.50119131561958,457.1048138119916
117020,-13.497401557849138,457.10872005639476
117021,-12.20475430917928,457.11262630079796
117022,-12.893032060047926,457.1165325452011
117023,-14.368854385492355,457.12043878960424
117024,-14.94315837909966,457.1243450340074
117025,-13.82884023483585,457.1282512784105
117026,-11.712737931355234,457.13215752281366
117027,-9.99018073210298,457.1360637672168
117028,-9.384199496780026,457.13997001162
117029,-9.250653393075154,457.14387625602313
117030,-8.247609682537476,457.1477825004263
117031,-5.786518545649355,457.1516887448294
117032,-2.9357543202470846,457.15559498923255
117033,-1.8915092739700534,457.1595012336357
117034,-4.365479387717837,457.16340747803883
117035,-10.173309008010115,457.16731372244203
117036,-17.15622481305413,457.1712199668452
117037,-22.50950967684357,457.1751262112483
117038,-24.537550180598824,457.17903245565145
117039,-23.617033407790363,457.1829387000546
117040,-21.795998028460982,457.18684494445773
117041,-21.390618686947075,457.1907511888609
117042,-23.496834455681608,457.19465743326407
117043,-27.26932854226849,457.1985636776672
117044,-30.33312905050677,457.20246992207035
117045,-30.107633880809562,457.2063761664735
117046,-25.36320301385852,457.21028241087663
117047,-17.145687182863835,457.21418865527977
117048,-8.437242640185769,457.2180948996829
117049,-2.593648279366665,457.2220011440861
117050,-1.4094958080379438,457.22590738848925
117051,-4.04387281926655,457.2298136328924
117052,-7.579389232272808,457.2337198772955
117053,-8.891229991125922,457.23762612169867
117054,-6.561476801347117,457.2415323661018
117055,-1.5506760450845407,457.24543861050495
117056,3.7181644621381813,457.24934485490814
117057,7.054014474433392,457.2532510993113
117058,7.714280089875042,457.2571573437144
117059,6.430560187355981,457.26106358811757
117060,4.5123092837335825,457.2649698325207
117061,2.8777492371396898,457.26887607692385
117062,1.670904250647582,457.272782321327
117063,0.4997209352433292,457.2766885657301
117064,-1.1105080641529246,457.2805948101333
117065,-3.4179136272690567,457.28450105453646
117066,-6.38317113231575,457.2884072989396
117067,-9.6780242402913,457.29231354334274
117068,-12.712714680193503,457.2962197877459
117069,-14.748827293444801,457.300126032149
117070,-15.16289282006391,457.30403227655216
117071,-13.776593641137428,457.30793852095536
117072,-11.042800791355964,457.3118447653585
117073,-7.914822201972761,457.31575100976164
117074,-5.411972725845454,457.3196572541648
117075,-4.100396299877849,457.3235634985679
117076,-3.8066549913514454,457.32746974297106
117077,-3.7928836495419387,457.3313759873742
117078,-3.3381173104030872,457.3352822317774
117079,-2.3235408251721053,457.33918847618054
117080,-1.2964801087843552,457.3430947205837
117081,-0.832059902587887,457.3470009649868
117082,-0.6871332950820052,457.35090720938996
117083,0.3347774748788943,457.3548134537931
117084,3.290468566131068,457.35871969819624
117085,7.377790801711038,457.36262594259944
117086,9.097499195529396,457.3665321870026
117087,3.4991531707983983,457.3704384314057
117088,-12.815691109665803,457.37434467580886
117089,-38.819475960555984,457.378250920212
117090,-68.38657246861433,457.38215716461514
117091,-92.44648383702818,457.3860634090183
117092,-102.68726218598647,457.3899696534215
117093,-94.71098037066265,457.3938758978246
117094,-69.24915791339843,457.39778214222775
117095,-31.403650450898365,457.4016883866309
117096,11.258871162122675,457.40559463103403
117097,50.872605777212456,457.4095008754372
117098,81.07300124133721,457.4134071198403
117099,98.00967382143232,457.4173133642435
117100,100.46672246050804,457.42121960864665
117101,89.53812236920426,457.4251258530498
117102,68.54356361118516,457.42903209745293
117103,43.14043748018563,457.4329383418561
117104,20.41052468617713,457.4368445862592
117105,5.799028834447492,457.44075083066235
117106,-0.9319540620126447,457.44465707506555
117107,-6.986434781657156,457.4485633194687
117108,-21.974562309504716,457.45246956387183
117109,-49.462192541166345,457.45637580827497
117110,-81.87221182414869,457.4602820526781
117111,-105.16452821013407,457.46418829708125
117112,-111.27722796466452,457.4680945414844
117113,-107.28104086039106,457.4720007858876
117114,-110.71950410284316,457.4759070302907
117115,-132.9280193230642,457.47981327469387
117116,-165.6499783425152,457.483719519097
117117,-186.19915188527347,457.48762576350015
117118,-179.52306205804396,457.4915320079033
117119,-156.60575662963254,457.4954382523064
117120,-148.12161689830293,457.4993444967096
117121,-174.65485561501157,457.50325074111277
117122,-220.45707206466602,457.5071569855159
117123,-239.46175451805146,457.51106322991905
117124,-193.59713012472935,457.5149694743222
117125,-89.32109825062997,457.5188757187253
117126,26.001505153789992,457.52278196312847
117127,110.96459126519261,457.5266882075316
117128,178.51983380502375,457.5305944519348
117129,294.6303512979804,457.53450069633794
117130,516.9602381767496,457.5384069407411
117131,821.5619401135348,457.5423131851442
117132,1086.0080531187496,457.54621942954736
117133,1155.8545951698907,457.5501256739505
117134,950.3186383673354,457.55403191835364
117135,525.3099051041379,457.55793816275684
117136,43.02390462203872,457.56184440716
117137,-328.34530780594787,457.5657506515631
117138,-507.7833982983516,457.56965689596626
117139,-522.6263549613498,457.5735631403694
117140,-456.01909696918705,457.57746938477254
117141,-375.5253321753778,457.5813756291757
117142,-300.90700508822454,457.5852818735789
117143,-223.67617390973473,457.589188117982
117144,-143.92656246131602,457.59309436238516
117145,-83.06968215901293,457.5970006067883
117146,-63.80331144217425,457.60090685119144
117147,-83.85223678038619,457.6048130955946
117148,-113.64138129828231,457.6087193399977
117149,-120.84379378983428,457.6126255844009
117150,-97.1656725114907,457.61653182880406
117151,-61.97200362653472,457.6204380732072
117152,-41.3987388504501,457.62434431761034
117153,-44.588021268931485,457.6282505620135
117154,-58.73394551480416,457.6321568064166
117155,-64.44112230776466,457.63606305081976
117156,-54.121207552377896,457.63996929522295
117157,-36.19826193384341,457.6438755396261
117158,-23.905502231803524,457.64778178402923
117159,-21.92681230609717,457.6516880284324
117160,-23.74869808292985,457.6555942728355
117161,-20.220088186365548,457.65950051723865
117162,-9.185033111371204,457.6634067616418
117163,3.1373211440317945,457.667313006045
117164,8.931948375219928,457.67121925044813
117165,6.0443200852941406,457.6751254948513
117166,-0.9807683456705062,457.6790317392544
117167,-5.829290327255466,457.68293798365755
117168,-5.806365898245909,457.6868442280607
117169,-3.017365017724086,457.69075047246383
117170,-1.4162305770638755,457.69465671686703
117171,-3.2093496512855286,457.69856296127017
117172,-7.571486853148929,457.7024692056733
117173,-11.849221300002686,457.70637545007645
117174,-13.556643799387352,457.7102816944796
117175,-11.704107340603517,457.71418793888273
117176,-7.1386062761712035,457.71809418328587
117177,-2.129934095740307,457.72200042768907
117178,0.6643064954793891,457.7259066720922
117179,-0.36539777603077317,457.72981291649535
117180,-4.687826930016167,457.7337191608985
117181,-9.825697018181081,457.7376254053016
117182,-12.996642556700237,457.74153164970477
117183,-13.097802953102168,457.7454378941079
117184,-11.46579383885948,457.7493441385111
117185,-10.781055340671614,457.75325038291425
117186,-13.012599506494933,457.7571566273174
117187,-18.00092841737999,457.7610628717205
117188,-23.592368697320744,457.76496911612367
117189,-26.952188661792015,457.7688753605268
117190,-25.996054269051356,457.77278160492995
117191,-20.176702371025698,457.77668784933314
117192,-10.527043718909784,457.7805940937363
117193,0.8371743917334574,457.7845003381394
117194,11.628268075222792,457.78840658254256
117195,20.52708812704747,457.7923128269457
117196,27.99294188570993,457.79621907134884
117197,36.00069126901236,457.800125315752
117198,46.5515348020612,457.8040315601551
117199,59.91239634976827,457.8079378045583
117200,74.09468307489394,457.81184404896146
117201,86.27662257510764,457.8157502933646
117202,95.18697529438268,457.81965653776774
117203,102.42834776886428,457.8235627821709
117204,111.44494354118979,457.827469026574
117205,124.83015055144564,457.83137527097716
117206,142.14263021518377,457.83528151538036
117207,159.97286668786447,457.8391877597835
117208,174.06023782690676,457.84309400418664
117209,181.61162758778622,457.8470002485898
117210,182.09203263088267,457.8509064929929
117211,176.3690980668107,457.85481273739606
117212,165.51631191098403,457.8587189817992
117213,150.46885430689213,457.8626252262024
117214,132.41216950382352,457.86653147060554
117215,112.83519476631314,457.8704377150087
117216,92.67691989517213,457.8743439594118
117217,71.34392071585168,457.87825020381496
117218,46.953654508424165,457.8821564482181
117219,18.1093476350509,457.88606269262124
117220,-14.20356488732185,457.88996893702443
117221,-46.524345169311324,457.8938751814276
117222,-75.07230671839825,457.8977814258307
117223,-98.39609833605249,457.90168767023385
117224,-118.04803848447,457.905593914637
117225,-136.49397520871565,457.90950015904014
117226,-154.0948006471251,457.9134064034433
117227,-168.04179163658893,457.9173126478465
117228,-174.45062955956735,457.9212188922496
117229,-171.87465035893064,457.92512513665275
117230,-163.04734233479113,457.9290313810559
117231,-153.14684265020645,457.93293762545903
117232,-145.98462929855935,457.9368438698622
117233,-141.39528933882912,457.9407501142653
117234,-136.01307950567326,457.9446563586685
117235,-126.58854052102478,457.94856260307165
117236,-112.82288224428422,457.9524688474748
117237,-97.32254528125306,457.95637509187793
117238,-83.01380009020076,457.96028133628107
117239,-70.61155716150803,457.9641875806842
117240,-58.4727412920584,457.96809382508735
117241,-44.76583188212717,457.97200006949055
117242,-29.695505522221,457.9759063138937
117243,-15.575975890016782,457.9798125582968
117244,-4.70505661337611,457.98371880269997
117245,2.8559000875195446,457.9876250471031
117246,9.383792039086494,457.99153129150625
117247,17.278019618321466,457.9954375359094
117248,26.551757016089137,457.9993437803126
117249,34.40962637663849,458.0032500247157
117250,37.443349567960894,458.00715626911887
117251,34.61321736380721,458.011062513522
117252,28.438796090560146,458.01496875792515
117253,23.348009793836553,458.0188750023283
117254,22.549286665603823,458.0227812467314
117255,25.97184087057935,458.0266874911346
117256,30.79879443510232,458.03059373553776
117257,33.89163479429785,458.0344999799409
117258,33.95636324173538,458.03840622434404
117259,31.803230687917146,458.0423124687472
117260,28.884429835417066,458.0462187131503
117261,25.72543864417765,458.05012495755346
117262,21.683615201394634,458.0540312019566
117263,16.02645586798167,458.0579374463598
117264,9.083135535651738,458.06184369076294
117265,2.3068333952325193,458.0657499351661
117266,-2.741601857696019,458.0696561795692
117267,-5.457861944062628,458.07356242397236
117268,-6.371077877781251,458.0774686683755
117269,-6.4800402883045685,458.08137491277864
117270,-6.575415731046999,458.08528115718184
117271,-7.180057049226103,458.089187401585
117272,-8.890097777438594,458.0930936459881
117273,-12.402821436721732,458.09699989039126
117274,-17.945757142106565,458.1009061347944
117275,-24.679801428150153,458.10481237919754
117276,-30.91384640176983,458.1087186236007
117277,-35.22659487318226,458.1126248680039
117278,-37.557863519452894,458.116531112407
117279,-39.14605243472354,458.12043735681016
117280,-41.19517825840606,458.1243436012133
117281,-43.444868665801835,458.12824984561644
117282,-44.07523347422841,458.1321560900196
117283,-41.22368717113345,458.1360623344227
117284,-34.84472683832382,458.1399685788259
117285,-27.19677283964782,458.14387482322905
117286,-21.396020183136486,458.1477810676322
117287,-19.210349639859245,458.15168731203534
117288,-19.96486578310148,458.1555935564385
117289,-21.431371402415166,458.1594998008416
117290,-21.804687298996733,458.16340604524476
117291,-20.969799803631673,458.16731228964795
117292,-20.037323137641792,458.1712185340511
117293,-19.792963699591574,458.17512477845423
117294,-19.678292342929424,458.1790310228574
117295,-18.30913533732965,458.1829372672605
117296,-14.979651071128394,458.18684351166365
117297,-10.612922244397225,458.1907497560668
117298,-7.145122597431373,458.19465600047
117299,-5.8542274394750855,458.19856224487313
117300,-6.201297881245845,458.20246848927627
117301,-6.324376550252302,458.2063747336794
117302,-4.798321077003104,458.21028097808255
117303,-2.071243291808553,458.2141872224857
117304,-0.2392990186816124,458.21809346688883
117305,-1.312845305405053,458.221999711292
117306,-5.498498144987319,458.22590595569517
117307,-11.01864418128186,458.2298122000983
117308,-15.610630786399412,458.23371844450145
117309,-18.344285875586166,458.2376246889046
117310,-20.13000693863899,458.24153093330773
117311,-22.496716032412717,458.24543717771087
117312,-25.800609934362726,458.24934342211407
117313,-28.550231811601336,458.2532496665172
117314,-28.53038185022526,458.25715591092035
117315,-24.782924958005506,458.2610621553235
117316,-18.71022673265346,458.2649683997266
117317,-13.30050366958199,458.26887464412977
117318,-11.067761720821718,458.2727808885329
117319,-12.354448909204688,458.2766871329361
117320,-15.288510693880681,458.28059337733924
117321,-17.30286058064028,458.2844996217424
117322,-16.939578206612467,458.2884058661455
117323,-14.615849670288144,458.29231211054866
117324,-12.005123595206378,458.2962183549518
117325,-10.740538243636626,458.30012459935494
117326,-11.438269701061849,458.30403084375814
117327,-13.53149073747665,458.3079370881613
117328,-15.735247221362705,458.3118433325644
117329,-16.707149779651207,458.31574957696756
117330,-15.631932835277162,458.3196558213707
117331,-12.634838553232596,458.32356206577384
117332,-8.876312698031287,458.327468310177
117333,-6.10523537554017,458.3313745545801
117334,-5.6897107542853895,458.3352807989833
117335,-7.65353464796155,458.33918704338646
117336,-10.504027804582092,458.3430932877896
117337,-12.192577986247525,458.34699953219274
117338,-11.613665791711362,458.3509057765959
117339,-9.445962299460568,458.354812020999
117340,-7.549269567542436,458.35871826540216
117341,-7.339611298074701,458.36262450980536
117342,-8.529937325835817,458.3665307542085
117343,-9.401258369086118,458.37043699861164
117344,-8.447649364270298,458.3743432430148
117345,-5.957343860009656,458.3782494874179
117346,-4.040977362507976,458.38215573182106
117347,-4.9243078893864585,458.3860619762242
117348,-8.877372974878018,458.3899682206274
117349,-13.574484382138671,458.39387446503054
117350,-15.557331456353083,458.3977807094337
117351,-12.742222461752121,458.4016869538368
117352,-6.035601102017192,458.40559319823996
117353,1.1802367570606083,458.4094994426431
117354,5.268714048970416,458.41340568704624
117355,4.593213338897302,458.41731193144943
117356,0.2376270755692811,458.4212181758526
117357,-5.107871187781445,458.4251244202557
117358,-9.058691800379298,458.42903066465885
117359,-10.806297738926773,458.432936909062
117360,-11.008094989106958,458.43684315346513
117361,-10.679174230097683,458.4407493978683
117362,-10.131497986091986,458.44465564227147
117363,-8.803526940418973,458.4485618866746
117364,-6.0253096048430095,458.45246813107775
117365,-2.0117301029309176,458.4563743754809
117366,1.8005211373986278,458.46028061988403
117367,3.460883324608322,458.46418686428717
117368,1.8324305580994373,458.4680931086903
117369,-2.4371125818277397,458.4719993530935
117370,-7.122371416444838,458.47590559749665
117371,-9.79552639066481,458.4798118418998
117372,-9.42334822889151,458.48371808630293
117373,-6.961560830293285,458.48762433070607
117374,-4.439838179206051,458.4915305751092
117375,-3.257260862303971,458.49543681951235
117376,-3.115565547539001,458.49934306391555
117377,-2.5071227569404098,458.5032493083187
117378,-0.29894911644734334,458.5071555527218
117379,3.071267664450881,458.51106179712497
117380,5.945029025349476,458.5149680415281
117381,7.042904850517192,458.51887428593125
117382,6.7842969924115835,458.5227805303344
117383,7.004467953020222,458.5266867747376
117384,9.257993214925802,458.5305930191407
117385,13.267992922230025,458.53449926354386
117386,16.946627176331543,458.538405507947
117387,17.88251727506965,458.54231175235014
117388,14.789516346534121,458.5462179967533
117389,7.562731012255792,458.5501242411564
117390,-3.852113803307236,458.5540304855596
117391,-20.21021994531391,458.55793672996276
117392,-42.07134186157593,458.5618429743659
117393,-67.73923861896895,458.56574921876904
117394,-92.02075425159263,458.5696554631722
117395,-107.48413873715812,458.5735617075753
117396,-107.91453794456282,458.57746795197846
117397,-91.71312572839155,458.5813741963816
117398,-62.790037869309,458.5852804407848
117399,-28.28714283239412,458.58918668518794
117400,5.18388237291613,458.5930929295911
117401,34.04929479177834,458.5969991739942
117402,57.38087300185972,458.60090541839736
117403,74.40665967961863,458.6048116628005
117404,82.62205759064614,458.60871790720364
117405,78.83314966422816,458.61262415160684
117406,62.75720640804205,458.61653039601
117407,39.8080697269249,458.6204366404131
117408,19.36173600568664,458.62434288481626
117409,8.353474006074627,458.6282491292194
117410,5.04772792487752,458.63215537362254
117411,-0.6461482786596284,458.6360616180257
117412,-18.721692948445614,458.6399678624289
117413,-48.895331498406534,458.643874106832
117414,-78.66073882721406,458.64778035123516
117415,-93.47668708904403,458.6516865956383
117416,-91.17519451077534,458.65559284004144
117417,-86.37998178014627,458.6594990844446
117418,-98.15867295105774,458.6634053288477
117419,-130.55764694993843,458.6673115732509
117420,-165.36665103276877,458.67121781765405
117421,-177.3996245782949,458.6751240620572
117422,-160.46643727963624,458.67903030646033
117423,-138.17404598953857,458.6829365508635
117424,-144.55342227288259,458.6868427952666
117425,-188.66084847170055,458.69074903966975
117426,-237.2253071950516,458.69465528407295
117427,-237.18145996365877,458.6985615284761
117428,-162.45848228852333,458.70246777287923
117429,-41.3780988641447,458.70637401728237
117430,66.79078700549002,458.7102802616855
117431,130.92989053258552,458.71418650608865
117432,188.44976639515127,458.7180927504918
117433,321.4608049772585,458.721998994895
117434,578.526481867658,458.72590523929813
117435,906.0360736777529,458.72981148370127
117436,1154.6302377777818,458.7337177281044
117437,1167.8305131984555,458.73762397250755
117438,890.1122099641796,458.7415302169107
117439,411.4969509914315,458.74543646131383
117440,-85.68402556574583,458.749342705717
117441,-436.10910239925926,458.75324895012017
117442,-575.839481992607,458.7571551945233
117443,-548.3359646126273,458.76106143892645
117444,-444.52036582293397,458.7649676833296
117445,-335.06703252816845,458.7688739277327
117446,-244.4906629145247,458.77278017213587
117447,-170.2599948143257,458.77668641653906
117448,-112.55517710140145,458.7805926609422
117449,-82.14072646610902,458.78449890534534
117450,-84.98829329484442,458.7884051497485
117451,-107.55312990739012,458.7923113941516
117452,-122.59318631767874,458.79621763855477
117453,-110.89918230717251,458.8001238829579
117454,-76.94613723558183,458.8040301273611
117455,-43.16079078400604,458.80793637176424
117456,-29.13152421729859,458.8118426161674
117457,-35.79982208611402,458.8157488605705
117458,-47.959840746511965,458.81965510497366
117459,-50.045380696483264,458.8235613493768
117460,-39.03962339451063,458.82746759377994
117461,-23.777925205418963,458.8313738381831
117462,-14.206839987622228,458.8352800825863
117463,-12.47812603155178,458.8391863269894
117464,-13.452272979912754,458.84309257139256
117465,-11.760715248994131,458.8469988157957
117466,-7.111479053048503,458.85090506019884
117467,-3.1850057299883128,458.854811304602
117468,-2.7884208306992804,458.8587175490051
117469,-5.004448413148845,458.8626237934083
117470,-6.77152478768865,458.86653003781146
117471,-6.301739930924443,458.8704362822146
117472,-4.4189813952343115,458.87434252661774
117473,-2.884194279044303,458.8782487710209
117474,-2.1444485791588757,458.882155015424
117475,-1.1046583745470937,458.88606125982716
117476,1.138723774373263,458.88996750423036
117477,3.860646072631716,458.8938737486335
117478,5.272744710913415,458.89777999303664
117479,4.429116103041878,458.9016862374398
117480,2.345883534555746,458.9055924818429
117481,1.0939418578221127,458.90949872624606
117482,1.7390485433189586,458.9134049706492
117483,3.128348920868522,458.9173112150524
117484,2.668898673524131,458.92121745945553
117485,-1.5862601017073295,458.9251237038587
117486,-9.291418619044894,458.9290299482618
117487,-17.850144473801436,458.93293619266495
117488,-23.99070782446587,458.9368424370681
117489,-25.65093714504023,458.94074868147123
117490,-22.924154616372384,458.94465492587443
117491,-17.630967027892126,458.94856117027757
117492,-12.017679904031606,458.9524674146807
117493,-7.529133425491432,458.95637365908385
117494,-4.379184856318885,458.960279903487
117495,-1.9877300698550369,458.96418614789013
117496,0.2551538777472258,458.9680923922933
117497,2.573812472736817,458.97199863669647
117498,4.999625741949086,458.9759048810996
117499,7.8265756086711,458.97981112550275
117500,11.740498161847094,458.9837173699059
117501,17.389798255800443,458.98762361430903
117502,24.789633482786556,458.99152985871217
117503,33.21174167290695,458.9954361031153
117504,41.79921149747583,458.9993423475185
117505,50.420850928825544,459.00324859192165
117506,59.960329913154425,459.0071548363248
117507,71.68414143105136,459.0110610807279
117508,86.16719577647154,459.01496732513107
117509,102.68986063240143,459.0188735695342
117510,119.62591679057287,459.02277981393735
117511,135.4688125489441,459.02668605834054
117512,149.5944477613338,459.0305923027437
117513,162.12381843099993,459.0344985471468
117514,173.06323837176274,459.03840479154997
117515,181.51865864706565,459.0423110359531
117516,185.68016739330648,459.04621728035625
117517,183.59584471796558,459.0501235247594
117518,174.12107874121125,459.0540297691626
117519,157.35279586685283,459.0579360135657
117520,134.32963839425867,459.06184225796886
117521,106.35659026815631,459.065748502372
117522,74.53997720709052,459.06965474677514
117523,39.873665300111426,459.0735609911783
117524,3.73192987855223,459.0774672355814
117525,-31.738374825362225,459.0813734799846
117526,-63.82231496921719,459.08527972438776
117527,-90.13559647378034,459.0891859687909
117528,-109.76269933536865,459.09309221319404
117529,-123.85237472856159,459.0969984575972
117530,-135.09381633151764,459.1009047020003
117531,-146.20653641829585,459.10481094640346
117532,-158.3348985097964,459.1087171908066
117533,-170.42666539918855,459.1126234352098
117534,-180.03281621065804,459.11652967961294
117535,-184.9164944559327,459.1204359240161
117536,-184.25448364808568,459.1243421684192
117537,-178.60948564128807,459.12824841282236
117538,-168.93938104197298,459.1321546572255
117539,-155.72152779825268,459.13606090162864
117540,-139.0481753136613,459.13996714603184
117541,-119.49791830809696,459.143873390435
117542,-98.73590492778625,459.1477796348381
117543,-79.01455476011353,459.15168587924126
117544,-61.86466866055501,459.1555921236444
117545,-47.17858872403133,459.15949836804754
117546,-33.62851767010653,459.1634046124507
117547,-20.110043181254515,459.1673108568539
117548,-6.862878948679614,459.171217101257
117549,4.830073504102606,459.17512334566015
117550,14.09474222062256,459.1790295900633
117551,21.616511136597033,459.18293583446643
117552,29.236402977096805,459.1868420788696
117553,38.20180171534962,459.1907483232727
117554,47.63726817709554,459.1946545676759
117555,54.73547938760973,459.19856081207905
117556,56.6928080117974,459.2024670564822
117557,52.87055187517436,459.20637330088533
117558,45.44943234548438,459.2102795452885
117559,38.11136920131682,459.2141857896916
117560,33.84673129550126,459.21809203409475
117561,33.49618107801902,459.22199827849795
117562,35.80940388281608,459.2259045229011
117563,38.55474340073275,459.22981076730423
117564,39.66521664249665,459.23371701170737
117565,37.82666618111115,459.2376232561105
117566,32.62543556758298,459.24152950051365
117567,24.594266321661525,459.2454357449168
117568,15.158325168754704,459.24934198932
117569,6.187584116200965,459.2532482337231
117570,-0.8975259029108035,459.25715447812627
117571,-5.954278083179497,459.2610607225294
117572,-10.162512137802043,459.26496696693255
117573,-15.098990221123898,459.2688732113357
117574,-21.50101344351952,459.2727794557388
117575,-28.715486493711023,459.276685700142
117576,-35.26737080921916,459.28059194454517
117577,-40.005727501306986,459.2844981889483
117578,-42.80948669890752,459.28840443335145
117579,-44.306930377880775,459.2923106777546
117580,-45.02047382024074,459.2962169221577
117581,-44.86448431670763,459.30012316656087
117582,-43.5059881864597,459.30402941096406
117583,-41.16501416281978,459.3079356553672
117584,-38.91024219274253,459.31184189977034
117585,-37.940746227053296,459.3157481441735
117586,-38.36423916229705,459.3196543885766
117587,-38.62504412563288,459.32356063297976
117588,-36.335160990843264,459.3274668773829
117589,-30.083825492561093,459.3313731217861
117590,-20.847378645385575,459.33527936618924
117591,-11.769574667814236,459.3391856105924
117592,-6.300545640961392,459.3430918549955
117593,-6.008132180776325,459.34699809939866
117594,-9.698713103340927,459.3509043438018
117595,-14.490874530678997,459.35481058820494
117596,-17.953336392615235,459.3587168326081
117597,-19.603265396505975,459.3626230770113
117598,-20.645117673815008,459.3665293214144
117599,-22.329010178544994,459.37043556581756
117600,-24.4554653971159,459.3743418102207
117601,-25.37520920752523,459.37824805462384
117602,-23.488506707158177,459.382154299027
117603,-18.909540407960787,459.3860605434301
117604,-13.792109182141186,459.3899667878333
117605,-10.952682124417818,459.39387303223646
117606,-11.87195606445883,459.3977792766396
117607,-15.659213912374717,459.40168552104274
117608,-19.734562377215752,459.4055917654459
117609,-21.596958086984294,459.409498009849
117610,-20.297638351791925,459.41340425425216
117611,-16.67037411960998,459.41731049865535
117612,-12.456051483061788,459.4212167430585
117613,-9.195538465289689,459.42512298746163
117614,-7.629492107621413,459.4290292318648
117615,-7.691323536162436,459.4329354762679
117616,-8.747499764144543,459.43684172067105
117617,-9.852047205465528,459.4407479650742
117618,-10.092743659197764,459.4446542094774
117619,-9.098802060386369,459.44856045388053
117620,-7.4247609297157195,459.4524666982837
117621,-6.331904696581906,459.4563729426868
117622,-6.881044149706627,459.46027918708995
117623,-8.974396545869514,459.4641854314931
117624,-11.264620202966318,459.46809167589623
117625,-12.213164018975844,459.47199792029943
117626,-11.483096916145112,459.47590416470257
117627,-10.360695681788673,459.4798104091057
117628,-10.644514820997614,459.48371665350885
117629,-12.868986313622377,459.487622897912
117630,-15.50658683850476,459.49152914231513
117631,-16.05853730140619,459.49543538671827
117632,-13.237225168120302,459.49934163112147
117633,-8.314241377605821,459.5032478755246
117634,-4.294848191428782,459.50715411992775
117635,-3.4741565508961285,459.5110603643309
117636,-5.455969175441377,459.514966608734
117637,-7.435790366145994,459.51887285313717
117638,-6.623555897107384,459.5227790975403
117639,-2.78000439709793,459.5266853419435
117640,1.3364411587138354,459.53059158634665
117641,2.0754575073712047,459.5344978307498
117642,-2.142668289929796,459.5384040751529
117643,-9.425086525575729,459.54231031955607
117644,-15.679559534068003,459.5462165639592
117645,-17.505221698892363,459.55012280836235
117646,-14.434938733773564,459.55402905276554
117647,-8.93809417204382,459.5579352971687
117648,-4.447238845064247,459.5618415415718
117649,-3.1029460985772483,459.56574778597496
117650,-4.835104428804778,459.5696540303781
117651,-8.093476338756599,459.57356027478124
117652,-11.246691985778522,459.5774665191844
117653,-13.429135332445505,459.5813727635876
117654,-14.424469201329272,459.5852790079907
117655,-14.135728548861387,459.58918525239386
117656,-12.420460456641901,459.593091496797
117657,-9.475141586741358,459.59699774120014
117658,-6.22703513996358,459.6009039856033
117659,-4.088757187731375,459.6048102300064
117660,-4.054490319506359,459.6087164744096
117661,-5.848007758634877,459.61262271881276
117662,-7.93407698695111,459.6165289632159
117663,-8.524339907271056,459.62043520761904
117664,-6.837090457865198,459.6243414520222
117665,-3.607591879919413,459.6282476964253
117666,-0.4602419422158999,459.63215394082846
117667,1.2855717066659766,459.6360601852316
117668,1.362048234244877,459.6399664296348
117669,0.31444893935320556,459.64387267403794
117670,-1.3187159494660152,459.6477789184411
117671,-3.4955852196767068,459.6516851628442
117672,-6.335832728472944,459.65559140724736
117673,-9.39056954786182,459.6594976516505
117674,-11.437298891618207,459.66340389605364
117675,-11.230851479120165,459.66731014045683
117676,-8.614135785993616,459.67121638486
117677,-4.871658374500596,459.6751226292631
117678,-1.805689985805802,459.67902887366625
117679,-0.23584635530559017,459.6829351180694
117680,0.7200521936359634,459.68684136247253
117681,2.8487200575265117,459.6907476068757
117682,7.174431530321975,459.6946538512789
117683,12.89973202130524,459.698560095682
117684,17.892833300065277,459.70246634008515
117685,20.260433485124885,459.7063725844883
117686,19.62684165096915,459.71027882889143
117687,17.14090560933166,459.7141850732946
117688,14.457536988691524,459.7180913176977
117689,12.72456989456483,459.7219975621009
117690,12.255033781870768,459.72590380650405
117691,12.646232098944798,459.7298100509072
117692,12.744668897427282,459.73371629531033
117693,10.430045803861232,459.73762253971347
117694,2.908579147261075,459.7415287841166
117695,-11.962634264851777,459.74543502851975
117696,-33.863729135062954,459.74934127292295
117697,-59.10179413521543,459.7532475173261
117698,-81.58529341475565,459.7571537617292
117699,-95.25055085819557,459.76106000613237
117700,-96.40246527042046,459.7649662505355
117701,-84.64514045240959,459.76887249493865
117702,-62.27893257300251,459.7727787393418
117703,-33.02051441091863,459.776684983745
117704,-0.9227582373104539,459.7805912281481
117705,30.2005698858052,459.78449747255127
117706,56.9409707554516,459.7884037169544
117707,76.22323902745339,459.79230996135755
117708,85.31321747220571,459.7962162057607
117709,82.4495436930355,459.8001224501638
117710,68.27423792758098,459.804028694567
117711,47.00300001616787,459.80793493897016
117712,25.38972524396101,459.8118411833733
117713,8.78213491569246,459.81574742777644
117714,-3.232574820604593,459.8196536721796
117715,-17.07870423934471,459.8235599165827
117716,-39.344729397129484,459.82746616098586
117717,-68.98295311948681,459.83137240538906
117718,-95.52576881208884,459.8352786497922
117719,-107.27215841648838,459.83918489419534
117720,-103.43326702858923,459.8430911385985
117721,-97.93358115664464,459.8469973830016
117722,-108.3360539032434,459.85090362740476
117723,-138.11399665561203,459.8548098718079
117724,-169.98515152503626,459.8587161162111
117725,-180.2150372910758,459.86262236061424
117726,-163.11244748070524,459.8665286050174
117727,-141.25174203994254,459.8704348494205
117728,-146.92693962584042,459.87434109382366
117729,-188.26149311890845,459.8782473382268
117730,-232.77329852640662,459.88215358262994
117731,-229.45288864869136,459.8860598270331
117732,-154.01699960064224,459.8899660714363
117733,-34.83354497513702,459.8938723158394
117734,70.75941879232656,459.89777856024256
117735,134.2149825328999,459.9016848046457
117736,194.1017666424838,459.90559104904884
117737,331.0557479920301,459.909497293452
117738,590.2755412456816,459.9134035378551
117739,915.3090379100281,459.9173097822583
117740,1156.8618100200808,459.92121602666145
117741,1161.8611328611164,459.9251222710646
117742,879.4525346330508,459.92902851546773
117743,402.4121760971143,459.9329347598709
117744,-87.9973777446557,459.936841004274
117745,-430.5286766130281,459.94074724867716
117746,-565.4427337430536,459.94465349308035
117747,-537.801118689742,459.9485597374835
117748,-436.89792831530656,459.95246598188663
117749,-330.18549281099354,459.9563722262898
117750,-239.74436734425365,459.9602784706929
117751,-162.76469785003547,459.96418471509605
117752,-101.03386670058197,459.9680909594992
117753,-67.58371743083413,459.9719972039024
117754,-70.17533549393522,459.97590344830553
117755,-95.99646915283755,459.97980969270867
117756,-117.30168145609125,459.9837159371118
117757,-113.18504345977806,459.98762218151495
117758,-85.67168850828327,459.9915284259181
117759,-55.00666990586333,459.99543467032123
